# working_directory=/home/msmile/Seafile/LINX/Projects/FP04.05_TetraPak/Milestone2_Stretching/
# fit2dfile=/home/msmile/Seafile/MartinS/projects/fit2dcorr/fit2d/fit2d_beta_18_002_Debian7_intel64
# macrofile=/home/msmile/Seafile/MartinS/projects/fit2dcorr/fit2d/fit2d_saxs_av_1.mac
#
# mask=4mm_cen.msk
# bcx=249.6 [pix]
# bcy=271.2 [pix]
# sdd=2000.0 [mm]
# lambda=1.5418 [Angstroem]
# pix_size=172.0 x 172.0 [microns x microns]
# array_size=487 x 619 [pix x pix]
# pix_x_r_out=1.0 [pix]
# pix_y_r_out=619.0 [pix]
# min_2theta=0.0000 [deg]
# max_2theta=2.1057 [deg]
# rad_max=427.5 [pix]
# rad_end=427.5 [pix]
# rad_bins=428
# min_Q=0.0000 [1/nm]
# max_Q=1.4977 [1/nm]
# x_scale_fac=1.0000
# pol_fac=0.990
#
# in=im_0058961_caz.tiff
# out=im_0058961_caz.chi_avg
# offset=4
# skipped lines=none
#
# Program called with: /home/msmile/Seafile/MartinS/projects/fit2dcorr/fit2dcorr -av 1 +mask 4mm_cen.msk +seq im_0058960_caz.tiff im_0058968_caz.tiff 4 10 +f im_0058971_caz.tiff im_0058972_caz.tiff +sdd 2000 +bc 249.64 271.19 +lambda auto +pix_size auto -nonnegative 
#
# Fit2D called with: /home/msmile/Seafile/MartinS/projects/fit2dcorr/fit2d/fit2d_beta_18_002_Debian7_intel64 -key -dim487x619 -fvar#SDD=2000.0 -fvar#LAMBDA=1.5418 -fvar#BCX=249.6 -fvar#BCY=271.2 -fvar#PIXSZ_X=172.0 -fvar#PIXSZ_Y=172.0 -fvar#POL_FAC=0.990 -svar#MASK=4mm_cen.msk -svar#CONSERVINT=NO -svar#FILE_IN=im_0058961_caz.tiff -svar#FILE_OUT=im_0058961_caz.chi_avg -ivar#RAD_BINS=428 -fvar#MAX_2THETA=2.1057 -mac/home/msmile/Seafile/MartinS/projects/fit2dcorr/fit2d/fit2d_saxs_av_1.mac
#
#     Q [1/nm]       I [a.u.]      dI [a.u.]
3.67406420E-02 1.32200170E+03 6.34460119E+01
4.02397510E-02 8.84586610E+02 9.95427024E+00
4.37388610E-02 6.38625550E+02 4.73344330E+00
4.72379700E-02 4.82807220E+02 3.22421916E+00
5.07370790E-02 3.71295010E+02 2.63466327E+00
5.42361890E-02 2.80659180E+02 2.08466697E+00
5.77352940E-02 2.18602910E+02 1.58153552E+00
6.12344030E-02 1.87210590E+02 1.38867398E+00
6.47335130E-02 1.51940960E+02 1.17806484E+00
6.82326260E-02 1.27342750E+02 1.06922429E+00
7.17317310E-02 1.09043430E+02 9.51229505E-01
7.52308370E-02 9.17108460E+01 8.54490392E-01
7.87299500E-02 8.08969570E+01 7.88431095E-01
8.22290550E-02 7.13019640E+01 7.13730727E-01
8.57281680E-02 6.15409890E+01 6.59065612E-01
8.92272740E-02 5.53653950E+01 6.01736261E-01
9.27263870E-02 4.96700250E+01 5.64827752E-01
9.62254930E-02 4.39358100E+01 5.21119690E-01
9.97245980E-02 3.95058020E+01 4.79938553E-01
1.03223710E-01 3.52925340E+01 4.52186618E-01
1.06722820E-01 3.15274090E+01 4.11782981E-01
1.10221930E-01 2.91009310E+01 3.95275259E-01
1.13721040E-01 2.68987050E+01 3.72679662E-01
1.17220150E-01 2.42623120E+01 3.45227421E-01
1.20719250E-01 2.19648590E+01 3.28326140E-01
1.24218370E-01 2.06017400E+01 3.08113042E-01
1.27717470E-01 1.86174930E+01 2.92531898E-01
1.31216590E-01 1.77490200E+01 2.79488207E-01
1.34715690E-01 1.61181790E+01 2.63573898E-01
1.38214800E-01 1.51395580E+01 2.53117207E-01
1.41713900E-01 1.37851270E+01 2.36044276E-01
1.45213020E-01 1.33817990E+01 2.32661388E-01
1.48712130E-01 1.24705960E+01 2.18942747E-01
1.52211230E-01 1.19283220E+01 2.13311680E-01
1.55710340E-01 1.09321540E+01 2.01971199E-01
1.59209450E-01 1.03616170E+01 1.92909123E-01
1.62708570E-01 9.84170060E+00 1.88161247E-01
1.66207670E-01 9.16154380E+00 1.76894333E-01
1.69706780E-01 8.92570210E+00 1.74780954E-01
1.73205880E-01 8.40218260E+00 1.67380266E-01
1.76705000E-01 8.16472050E+00 1.62349006E-01
1.80204110E-01 7.83205840E+00 1.58961709E-01
1.83703210E-01 7.47416590E+00 1.51829333E-01
1.87202320E-01 6.97094680E+00 1.46861019E-01
1.90701430E-01 6.80091710E+00 1.42647455E-01
1.94200550E-01 6.82161860E+00 1.42018985E-01
1.97699650E-01 6.58779190E+00 1.38677661E-01
2.01198760E-01 6.30926660E+00 1.33447208E-01
2.04697860E-01 6.27275180E+00 1.34951368E-01
2.08196980E-01 6.44622760E+00 1.36932655E-01
2.11696090E-01 6.00764080E+00 1.33796667E-01
2.15195190E-01 5.74466610E+00 1.31070192E-01
2.18694300E-01 5.79156640E+00 1.30572870E-01
2.22193410E-01 5.48939420E+00 1.28552761E-01
2.25692530E-01 5.60993150E+00 1.27875120E-01
2.29191630E-01 5.77014020E+00 1.30947170E-01
2.32690740E-01 5.51528880E+00 1.27380853E-01
2.36189840E-01 5.43172740E+00 1.25412643E-01
2.39688950E-01 5.37978410E+00 1.25677735E-01
2.43188070E-01 5.07676120E+00 1.20241959E-01
2.46687170E-01 5.21833940E+00 1.23040018E-01
2.50186290E-01 5.10039140E+00 1.20223847E-01
2.53685380E-01 5.24748800E+00 1.22088140E-01
2.57184510E-01 5.07302860E+00 1.19957647E-01
2.60683600E-01 5.15669200E+00 1.19498380E-01
2.64182720E-01 5.30774020E+00 1.22247937E-01
2.67681840E-01 5.42255160E+00 1.21484148E-01
2.71180930E-01 5.13410000E+00 1.17475367E-01
2.74680050E-01 5.31961060E+00 1.16328892E-01
2.78179140E-01 5.43565080E+00 1.15066687E-01
2.81678260E-01 5.58526850E+00 1.16301977E-01
2.85177380E-01 5.65290640E+00 1.14248730E-01
2.88676470E-01 5.64135500E+00 1.13984072E-01
2.92175590E-01 5.63490490E+00 1.12351773E-01
2.95674680E-01 5.60943270E+00 1.11155370E-01
2.99173800E-01 5.85752010E+00 1.12847721E-01
3.02672920E-01 5.95517680E+00 1.12385340E-01
3.06172010E-01 5.85882760E+00 1.11112486E-01
3.09671130E-01 5.85325100E+00 1.09614669E-01
3.13170250E-01 5.93217470E+00 1.10100174E-01
3.16669340E-01 5.92427870E+00 1.08851293E-01
3.20168470E-01 6.04455950E+00 1.09241453E-01
3.23667560E-01 5.98322490E+00 1.08424129E-01
3.27166680E-01 5.96814970E+00 1.06695002E-01
3.30665800E-01 6.30455450E+00 1.09544916E-01
3.34164890E-01 6.26728200E+00 1.08187123E-01
3.37664010E-01 6.37077280E+00 1.08643223E-01
3.41163100E-01 6.34355310E+00 1.07912170E-01
3.44662220E-01 6.31104420E+00 1.06216490E-01
3.48161340E-01 6.44744210E+00 1.07418927E-01
3.51660430E-01 6.35736800E+00 1.05511344E-01
3.55159550E-01 6.64720200E+00 1.07678242E-01
3.58658640E-01 6.53755380E+00 1.06007590E-01
3.62157760E-01 6.56144670E+00 1.05470063E-01
3.65656880E-01 6.81512740E+00 1.07263489E-01
3.69155970E-01 6.57229660E+00 1.04350463E-01
3.72655090E-01 6.69520710E+00 1.04967025E-01
3.76154210E-01 6.76496220E+00 1.04944215E-01
3.79653300E-01 6.68970160E+00 1.03598736E-01
3.83152430E-01 6.85345600E+00 1.04914817E-01
3.86651520E-01 6.67182450E+00 1.02115921E-01
3.90150640E-01 6.70909600E+00 1.02545312E-01
3.93649760E-01 6.76061200E+00 1.02281137E-01
3.97148850E-01 6.79787680E+00 1.01689055E-01
4.00647970E-01 6.90384720E+00 1.02778640E-01
4.04147060E-01 6.76078990E+00 1.00078940E-01
4.07646180E-01 6.83446070E+00 1.01115220E-01
4.11145300E-01 6.57183460E+00 9.82556582E-02
4.14644390E-01 6.50334310E+00 9.71699870E-02
4.18143510E-01 6.55779930E+00 9.76315360E-02
4.21642600E-01 6.51404380E+00 9.61424901E-02
4.25141720E-01 6.60437490E+00 9.70790334E-02
4.28640840E-01 6.51411010E+00 9.53641440E-02
4.32139930E-01 6.29950950E+00 9.37445370E-02
4.35639050E-01 6.43881650E+00 9.44298809E-02
4.39138140E-01 6.33881040E+00 9.27538322E-02
4.42637260E-01 6.25213910E+00 9.24866252E-02
4.46136390E-01 6.15060810E+00 9.05257693E-02
4.49635480E-01 6.01714370E+00 8.96954450E-02
4.53134600E-01 6.07241540E+00 8.96869146E-02
4.56633720E-01 5.98208710E+00 8.82730208E-02
4.60132810E-01 5.90554330E+00 8.80267813E-02
4.63631930E-01 5.77582410E+00 8.58166210E-02
4.67131020E-01 5.76065640E+00 8.60238845E-02
4.70630140E-01 5.60542960E+00 8.42101921E-02
4.74129260E-01 5.68928000E+00 8.56867438E-02
4.77628350E-01 5.57974820E+00 8.58403956E-02
4.81127470E-01 5.44236470E+00 8.45183279E-02
4.84626560E-01 5.35806800E+00 8.47157585E-02
4.88125680E-01 5.27279570E+00 8.36462430E-02
4.91624800E-01 5.09735540E+00 8.26041220E-02
4.95123890E-01 5.16393520E+00 8.32760819E-02
4.98623010E-01 5.06013440E+00 8.20507077E-02
5.02122100E-01 4.97495170E+00 8.19818646E-02
5.05621250E-01 5.00269130E+00 8.14128777E-02
5.09120350E-01 4.90563440E+00 8.11547355E-02
5.12619440E-01 4.79293970E+00 8.01385928E-02
5.16118530E-01 4.70103650E+00 7.89261869E-02
5.19617680E-01 4.66750480E+00 7.92742216E-02
5.23116770E-01 4.54114630E+00 7.72518131E-02
5.26615860E-01 4.47733310E+00 7.73408861E-02
5.30115010E-01 4.43469430E+00 7.65611751E-02
5.33614100E-01 4.34620090E+00 7.57716020E-02
5.37113190E-01 4.25383090E+00 7.51333566E-02
5.40612340E-01 4.14287330E+00 7.25205130E-02
5.44111430E-01 4.04277420E+00 7.12062311E-02
5.47610520E-01 4.06534670E+00 7.02798098E-02
5.51109610E-01 4.06776140E+00 7.00399269E-02
5.54608760E-01 3.86107590E+00 6.78392237E-02
5.58107850E-01 3.79153970E+00 6.65203523E-02
5.61606940E-01 3.76830200E+00 6.63982266E-02
5.65106090E-01 3.71124510E+00 6.49744781E-02
5.68605180E-01 3.68069910E+00 6.48308219E-02
5.72104280E-01 3.56155370E+00 6.33819730E-02
5.75603430E-01 3.52392550E+00 6.24907415E-02
5.79102520E-01 3.48323490E+00 6.22841889E-02
5.82601610E-01 3.43579550E+00 6.10532279E-02
5.86100760E-01 3.30300810E+00 6.00406369E-02
5.89599850E-01 3.32176660E+00 5.97138564E-02
5.93098940E-01 3.20295170E+00 5.84792625E-02
5.96598030E-01 3.16638020E+00 5.80263801E-02
6.00097180E-01 3.04760550E+00 5.63990804E-02
6.03596270E-01 3.06402520E+00 5.67369494E-02
6.07095360E-01 3.02245470E+00 5.57285349E-02
6.10594510E-01 2.99477790E+00 5.55041426E-02
6.14093600E-01 3.02704620E+00 5.56092857E-02
6.17592690E-01 3.03125740E+00 5.52353760E-02
6.21091840E-01 2.91169380E+00 5.42865573E-02
6.24590930E-01 2.83536390E+00 5.29408573E-02
6.28090020E-01 2.77048870E+00 5.25017595E-02
6.31589110E-01 2.74592090E+00 5.20092809E-02
6.35088260E-01 2.75938490E+00 5.17881473E-02
6.38587360E-01 2.73981240E+00 5.17415482E-02
6.42086450E-01 2.64117430E+00 5.02748900E-02
6.45585600E-01 2.61458590E+00 5.01595339E-02
6.49084690E-01 2.67356970E+00 5.03333272E-02
6.52583780E-01 2.57137850E+00 4.92939275E-02
6.56082930E-01 2.59098390E+00 4.93938507E-02
6.59582020E-01 2.57533050E+00 4.89047492E-02
6.63081110E-01 2.52442910E+00 4.84843551E-02
6.66580260E-01 2.41112210E+00 4.70285650E-02
6.70079350E-01 2.46058580E+00 4.74615319E-02
6.73578440E-01 2.39990040E+00 4.68041011E-02
6.77077530E-01 2.31513070E+00 4.56030346E-02
6.80576680E-01 2.30386210E+00 4.55660604E-02
6.84075770E-01 2.22140840E+00 4.44229673E-02
6.87574860E-01 2.30150650E+00 4.52055274E-02
6.91074010E-01 2.25636840E+00 4.47044553E-02
6.94573100E-01 2.24154160E+00 4.41458893E-02
6.98072200E-01 2.20657920E+00 4.39143613E-02
7.01571350E-01 2.24301530E+00 4.39841420E-02
7.05070440E-01 2.18906740E+00 4.34222852E-02
7.08569530E-01 2.20066140E+00 4.33808771E-02
7.12068680E-01 2.12766310E+00 4.25187253E-02
7.15567770E-01 2.11875340E+00 4.23800573E-02
7.19066860E-01 2.10721730E+00 4.20532639E-02
7.22565950E-01 2.04652480E+00 4.14547998E-02
7.26065100E-01 1.99926830E+00 4.07987907E-02
7.29564190E-01 1.94920890E+00 4.01446981E-02
7.33063280E-01 2.04273700E+00 4.10729421E-02
7.36562430E-01 2.05333950E+00 4.07900360E-02
7.40061520E-01 2.00340700E+00 4.03927380E-02
7.43560610E-01 1.95878580E+00 3.96957702E-02
7.47059760E-01 1.93331120E+00 3.94252174E-02
7.50558850E-01 1.91049610E+00 3.91066983E-02
7.54057940E-01 1.88492110E+00 3.86564178E-02
7.57557030E-01 1.88330200E+00 3.87248252E-02
7.61056180E-01 1.89301870E+00 3.85307973E-02
7.64555280E-01 2.00036120E+00 3.96720877E-02
7.68054370E-01 1.89828070E+00 3.84103754E-02
7.71553520E-01 1.82710900E+00 3.76320946E-02
7.75052610E-01 1.80094310E+00 3.72962457E-02
7.78551700E-01 1.82245610E+00 3.73174379E-02
7.82050850E-01 1.81022890E+00 3.72817940E-02
7.85549940E-01 1.68710020E+00 3.56871262E-02
7.89049030E-01 1.71626680E+00 3.60696285E-02
7.92548180E-01 1.79769430E+00 3.67966808E-02
7.96047270E-01 1.80904770E+00 3.67294338E-02
7.99546360E-01 1.77652380E+00 3.65152044E-02
8.03045450E-01 1.76054820E+00 3.59681971E-02
8.06544600E-01 1.75266310E+00 3.60494830E-02
8.10043690E-01 1.71163200E+00 3.54331149E-02
8.13542780E-01 1.70565550E+00 3.52777628E-02
8.17041930E-01 1.68498440E+00 3.50926988E-02
8.20541020E-01 1.63433090E+00 3.43093624E-02
8.24040110E-01 1.61149230E+00 3.41677825E-02
8.27539270E-01 1.68989320E+00 3.48015025E-02
8.31038360E-01 1.63756950E+00 3.46873660E-02
8.34537450E-01 1.65682900E+00 3.50887511E-02
8.38036540E-01 1.67543030E+00 3.52697901E-02
8.41535690E-01 1.66201880E+00 3.54161301E-02
8.45034780E-01 1.62790190E+00 3.48657536E-02
8.48533870E-01 1.62257190E+00 3.50263971E-02
8.52033020E-01 1.52958200E+00 3.40301308E-02
8.55532110E-01 1.58675230E+00 3.45308582E-02
8.59031200E-01 1.61096020E+00 3.49764328E-02
8.62530350E-01 1.59388610E+00 3.44783986E-02
8.66029440E-01 1.59471560E+00 3.46819265E-02
8.69528530E-01 1.56851780E+00 3.42342473E-02
8.73027680E-01 1.55837190E+00 3.45385981E-02
8.76526770E-01 1.59649210E+00 3.53786403E-02
8.80025860E-01 1.60065320E+00 3.54692418E-02
8.83524950E-01 1.56052400E+00 3.54149884E-02
8.87024100E-01 1.55003300E+00 3.52324434E-02
8.90523200E-01 1.59519300E+00 3.60335434E-02
8.94022290E-01 1.51715970E+00 3.52745184E-02
8.97521440E-01 1.49226570E+00 3.49051451E-02
9.01020530E-01 1.53219380E+00 3.56595537E-02
9.04519620E-01 1.55259790E+00 3.56472111E-02
9.08018770E-01 1.53893850E+00 3.57512857E-02
9.11517860E-01 1.53901930E+00 3.57548647E-02
9.15016950E-01 1.52591630E+00 3.55421044E-02
9.18516040E-01 1.56829870E+00 3.63375045E-02
9.22015190E-01 1.53644320E+00 3.57871778E-02
9.25514280E-01 1.54946210E+00 3.62667475E-02
9.29013370E-01 1.52675960E+00 3.58769833E-02
9.32512520E-01 1.52311750E+00 3.59867540E-02
9.36011610E-01 1.50100770E+00 3.58609421E-02
9.39510700E-01 1.46132290E+00 3.52595717E-02
9.43009850E-01 1.54698050E+00 3.65953510E-02
9.46508940E-01 1.52577560E+00 3.62640124E-02
9.50008030E-01 1.46219750E+00 3.63134581E-02
9.53507180E-01 1.51454420E+00 3.73529055E-02
9.57006280E-01 1.54077400E+00 3.78000205E-02
9.60505370E-01 1.50438540E+00 3.79022362E-02
9.64004460E-01 1.51810190E+00 3.78972378E-02
9.67503610E-01 1.49594830E+00 3.81401305E-02
9.71002700E-01 1.42701320E+00 3.73258351E-02
9.74501790E-01 1.43989120E+00 3.75957215E-02
9.78000940E-01 1.50260370E+00 3.87858145E-02
9.81500030E-01 1.52473190E+00 3.89363486E-02
9.84999120E-01 1.49235770E+00 3.90133438E-02
9.88498270E-01 1.45507350E+00 3.84147606E-02
9.91997360E-01 1.46480560E+00 3.88519105E-02
9.95496450E-01 1.52091670E+00 3.97949239E-02
9.98995540E-01 1.43323210E+00 3.85317056E-02
1.00249470E+00 1.43147440E+00 3.89929305E-02
1.00599380E+00 1.46207370E+00 3.91412008E-02
1.00949290E+00 1.43351790E+00 3.91657392E-02
1.01299200E+00 1.41490790E+00 3.90078972E-02
1.01649120E+00 1.41565790E+00 3.89355828E-02
1.01999020E+00 1.36442610E+00 3.87239310E-02
1.02348940E+00 1.40276910E+00 3.88751290E-02
1.02698840E+00 1.41382320E+00 3.95885643E-02
1.03048750E+00 1.41543230E+00 3.95775392E-02
1.03398670E+00 1.43531780E+00 4.00348679E-02
1.03748570E+00 1.42559310E+00 4.02307796E-02
1.04098490E+00 1.45784990E+00 4.05341340E-02
1.04448400E+00 1.40928070E+00 4.03929407E-02
1.04798310E+00 1.39379330E+00 3.99543373E-02
1.05148220E+00 1.36899460E+00 3.99923440E-02
1.05498140E+00 1.34414590E+00 3.98095163E-02
1.05848040E+00 1.45281800E+00 4.12886718E-02
1.06197950E+00 1.39918460E+00 4.10989771E-02
1.06547870E+00 1.32050380E+00 3.95700804E-02
1.06897770E+00 1.33890080E+00 4.03989683E-02
1.07247690E+00 1.40649820E+00 4.14928757E-02
1.07597600E+00 1.36281750E+00 4.07740857E-02
1.07947500E+00 1.39583480E+00 4.18081155E-02
1.08297420E+00 1.38817470E+00 4.13642837E-02
1.08647330E+00 1.34221540E+00 4.12837321E-02
1.08997240E+00 1.36558600E+00 4.14723903E-02
1.09347150E+00 1.35494090E+00 4.16060335E-02
1.09697070E+00 1.34531120E+00 4.17393968E-02
1.10046970E+00 1.27780450E+00 4.04906410E-02
1.10396890E+00 1.25899410E+00 4.08009844E-02
1.10746790E+00 1.26743970E+00 4.06118927E-02
1.11096700E+00 1.28852090E+00 4.14104736E-02
1.11446620E+00 1.29437040E+00 4.17008627E-02
1.11796520E+00 1.27913370E+00 4.12581522E-02
1.12146440E+00 1.33568240E+00 4.29080467E-02
1.12496350E+00 1.31293890E+00 4.19766288E-02
1.12846260E+00 1.27620980E+00 4.21040586E-02
1.13196170E+00 1.21024050E+00 4.09544783E-02
1.13546090E+00 1.29349900E+00 4.23699130E-02
1.13895990E+00 1.33394280E+00 4.35560134E-02
1.14245900E+00 1.32514810E+00 4.30142161E-02
1.14595820E+00 1.32957090E+00 4.38984533E-02
1.14945720E+00 1.33077570E+00 4.34882869E-02
1.15295640E+00 1.33284210E+00 4.40977678E-02
1.15645550E+00 1.33073460E+00 4.41500441E-02
1.15995450E+00 1.28783050E+00 4.34115258E-02
1.16345370E+00 1.33531900E+00 4.47951459E-02
1.16695280E+00 1.26857440E+00 4.32308115E-02
1.17045190E+00 1.23721220E+00 4.32750058E-02
1.17395100E+00 1.24120550E+00 4.33850335E-02
1.17745020E+00 1.24663580E+00 4.35349534E-02
1.18094920E+00 1.28512050E+00 4.48175538E-02
1.18444840E+00 1.27535880E+00 4.41172514E-02
1.18794740E+00 1.27745530E+00 4.49063981E-02
1.19144650E+00 1.25951580E+00 4.43586049E-02
1.19494570E+00 1.26574210E+00 4.48819314E-02
1.19844470E+00 1.21723030E+00 4.40913581E-02
1.20194390E+00 1.27461240E+00 4.52824556E-02
1.20544300E+00 1.21893720E+00 4.46305997E-02
1.20894210E+00 1.30095400E+00 4.59479876E-02
1.21244120E+00 1.22791410E+00 4.51080612E-02
1.21594040E+00 1.27198350E+00 4.67324378E-02
1.21943940E+00 1.29854820E+00 4.91982011E-02
1.22293850E+00 1.21847580E+00 4.88499743E-02
1.22643770E+00 1.23671390E+00 4.98093693E-02
1.22993670E+00 1.24616170E+00 5.14671342E-02
1.23343590E+00 1.23238180E+00 5.16779127E-02
1.23693500E+00 1.23266920E+00 5.28831368E-02
1.24043410E+00 1.20932600E+00 5.34326709E-02
1.24393320E+00 1.26271130E+00 5.50395241E-02
1.24743240E+00 1.19903850E+00 5.49472511E-02
1.25093140E+00 1.21503930E+00 5.61141571E-02
1.25443050E+00 1.22328970E+00 5.72210990E-02
1.25792970E+00 1.20004170E+00 5.78738523E-02
1.26142870E+00 1.15593210E+00 5.72928282E-02
1.26492790E+00 1.13457130E+00 5.78157895E-02
1.26842690E+00 1.28765190E+00 6.24745118E-02
1.27192600E+00 1.24410310E+00 6.21744080E-02
1.27542520E+00 1.27383660E+00 6.40330565E-02
1.27892420E+00 1.17794950E+00 6.23601005E-02
1.28242340E+00 1.12022330E+00 6.17494798E-02
1.28592250E+00 1.18711630E+00 6.46780048E-02
1.28942160E+00 1.23557100E+00 6.65861466E-02
1.29292070E+00 1.11212110E+00 6.40322316E-02
1.29641990E+00 1.19895040E+00 6.74315231E-02
1.29991890E+00 1.09877500E+00 6.50689506E-02
1.30341800E+00 1.18451830E+00 6.85468186E-02
1.30691720E+00 1.25242290E+00 7.14740120E-02
1.31041620E+00 1.07872050E+00 6.68906987E-02
1.31391540E+00 1.10615440E+00 6.87588662E-02
1.31741450E+00 1.14798690E+00 7.10464984E-02
1.32091360E+00 1.10785730E+00 7.04491306E-02
1.32441270E+00 1.18687670E+00 7.40111005E-02
1.32791190E+00 1.24194670E+00 7.68677002E-02
1.33141090E+00 1.20557060E+00 7.64517192E-02
1.33491000E+00 1.12426330E+00 7.50058177E-02
1.33840920E+00 1.14019330E+00 7.66845030E-02
1.34190820E+00 1.19520160E+00 7.94318500E-02
1.34540740E+00 1.22767930E+00 8.17497770E-02
1.34890640E+00 1.18911410E+00 8.17498340E-02
1.35240550E+00 1.23109150E+00 8.42917343E-02
1.35590470E+00 1.08379750E+00 8.03289635E-02
1.35940370E+00 1.05843780E+00 8.07456941E-02
1.36290290E+00 1.09820060E+00 8.35260896E-02
1.36640200E+00 1.06651720E+00 8.35147192E-02
1.36990110E+00 1.13097790E+00 8.76709774E-02
1.37340020E+00 1.10767850E+00 8.84016335E-02
1.37689940E+00 1.24638530E+00 9.50733422E-02
1.38039840E+00 1.26803150E+00 9.78053019E-02
1.38389750E+00 1.31934830E+00 1.01855780E-01
1.38739670E+00 1.16933190E+00 9.76404606E-02
1.39089570E+00 1.20619180E+00 1.01032007E-01
1.39439490E+00 1.15071740E+00 1.00933650E-01
1.39789400E+00 1.16853170E+00 1.04146900E-01
1.40139310E+00 1.16818250E+00 1.06050642E-01
1.40489220E+00 1.12295290E+00 1.06553656E-01
1.40839140E+00 1.11531580E+00 1.08998263E-01
1.41189040E+00 1.05480360E+00 1.08799793E-01
1.41538950E+00 1.01637520E+00 1.09301976E-01
1.41888870E+00 1.10772230E+00 1.17560329E-01
1.42238770E+00 1.01198260E+00 1.15929198E-01
1.42588690E+00 1.04791000E+00 1.21529365E-01
1.42938590E+00 1.04681350E+00 1.25288180E-01
1.43288510E+00 1.14569960E+00 1.36013118E-01
1.43638420E+00 9.40419610E-01 1.28198249E-01
1.43988320E+00 9.50859250E-01 1.33753443E-01
1.44338240E+00 1.16761410E+00 1.55038180E-01
1.44688150E+00 1.10702900E+00 1.58809780E-01
1.45038060E+00 1.10678150E+00 1.67795483E-01
1.45387970E+00 1.03696070E+00 1.71078218E-01
1.45737890E+00 9.48368730E-01 1.74498272E-01
1.46087790E+00 1.40529490E+00 2.30379854E-01
