# working_directory=/home/msmile/Seafile/LINX/Projects/FP04.05_TetraPak/Milestone2_Stretching/
# fit2dfile=/home/msmile/Seafile/MartinS/projects/fit2dcorr/fit2d/fit2d_beta_18_002_Debian7_intel64
# macrofile=/home/msmile/Seafile/MartinS/projects/fit2dcorr/fit2d/fit2d_saxs_av_1.mac
#
# mask=4mm_cen.msk
# bcx=249.6 [pix]
# bcy=271.2 [pix]
# sdd=2000.0 [mm]
# lambda=1.5418 [Angstroem]
# pix_size=172.0 x 172.0 [microns x microns]
# array_size=487 x 619 [pix x pix]
# pix_x_r_out=1.0 [pix]
# pix_y_r_out=619.0 [pix]
# min_2theta=0.0000 [deg]
# max_2theta=2.1057 [deg]
# rad_max=427.5 [pix]
# rad_end=427.5 [pix]
# rad_bins=428
# min_Q=0.0000 [1/nm]
# max_Q=1.4977 [1/nm]
# x_scale_fac=1.0000
# pol_fac=0.990
#
# in=im_0058971_caz.tiff
# out=im_0058971_caz.chi_avg
# offset=4
# skipped lines=none
#
# Program called with: /home/msmile/Seafile/MartinS/projects/fit2dcorr/fit2dcorr -av 1 +mask 4mm_cen.msk +seq im_0058960_caz.tiff im_0058968_caz.tiff 4 10 +f im_0058971_caz.tiff im_0058972_caz.tiff +sdd 2000 +bc 249.64 271.19 +lambda auto +pix_size auto -nonnegative 
#
# Fit2D called with: /home/msmile/Seafile/MartinS/projects/fit2dcorr/fit2d/fit2d_beta_18_002_Debian7_intel64 -key -dim487x619 -fvar#SDD=2000.0 -fvar#LAMBDA=1.5418 -fvar#BCX=249.6 -fvar#BCY=271.2 -fvar#PIXSZ_X=172.0 -fvar#PIXSZ_Y=172.0 -fvar#POL_FAC=0.990 -svar#MASK=4mm_cen.msk -svar#CONSERVINT=NO -svar#FILE_IN=im_0058971_caz.tiff -svar#FILE_OUT=im_0058971_caz.chi_avg -ivar#RAD_BINS=428 -fvar#MAX_2THETA=2.1057 -mac/home/msmile/Seafile/MartinS/projects/fit2dcorr/fit2d/fit2d_saxs_av_1.mac
#
#     Q [1/nm]       I [a.u.]      dI [a.u.]
3.67406420E-02 6.48000730E+02 4.44197429E+01
4.02397510E-02 3.84788670E+02 6.56523663E+00
4.37388610E-02 2.75936310E+02 3.11141875E+00
4.72379700E-02 2.17823390E+02 2.16565827E+00
5.07370790E-02 1.66068160E+02 1.76201150E+00
5.42361890E-02 1.25813930E+02 1.39576212E+00
5.77352940E-02 9.92142940E+01 1.06546230E+00
6.12344030E-02 8.56171340E+01 9.39107795E-01
6.47335130E-02 7.03589940E+01 8.01662533E-01
6.82326260E-02 5.87009090E+01 7.25945680E-01
7.17317310E-02 4.95287820E+01 6.41083190E-01
7.52308370E-02 4.24049640E+01 5.81038844E-01
7.87299500E-02 3.71952480E+01 5.34615270E-01
8.22290550E-02 3.32594830E+01 4.87462676E-01
8.57281680E-02 2.85342100E+01 4.48775706E-01
8.92272740E-02 2.51552870E+01 4.05603440E-01
9.27263870E-02 2.22659050E+01 3.78171688E-01
9.62254930E-02 2.03923840E+01 3.55027656E-01
9.97245980E-02 1.83066010E+01 3.26707457E-01
1.03223710E-01 1.64198210E+01 3.08432768E-01
1.06722820E-01 1.46668900E+01 2.80862184E-01
1.10221930E-01 1.34323450E+01 2.68548103E-01
1.13721040E-01 1.23607990E+01 2.52634851E-01
1.17220150E-01 1.15211380E+01 2.37895848E-01
1.20719250E-01 1.03403390E+01 2.25272745E-01
1.24218370E-01 9.74179840E+00 2.11874012E-01
1.27717470E-01 9.16475770E+00 2.05245239E-01
1.31216590E-01 8.04619220E+00 1.88179147E-01
1.34715690E-01 7.58835410E+00 1.80849870E-01
1.38214800E-01 6.91448120E+00 1.71058583E-01
1.41713900E-01 6.34743880E+00 1.60172272E-01
1.45213020E-01 5.91610530E+00 1.54698114E-01
1.48712130E-01 5.60224340E+00 1.46746559E-01
1.52211230E-01 5.55568410E+00 1.45577325E-01
1.55710340E-01 4.97935010E+00 1.36308486E-01
1.59209450E-01 4.77831600E+00 1.31001556E-01
1.62708570E-01 4.48485660E+00 1.27019206E-01
1.66207670E-01 4.40326830E+00 1.22635764E-01
1.69706780E-01 4.29237030E+00 1.21205270E-01
1.73205880E-01 4.17092470E+00 1.17930028E-01
1.76705000E-01 3.79655810E+00 1.10706724E-01
1.80204110E-01 3.62167640E+00 1.08095941E-01
1.83703210E-01 3.57939510E+00 1.05070097E-01
1.87202320E-01 3.27423910E+00 1.00650478E-01
1.90701430E-01 3.21831320E+00 9.81283352E-02
1.94200550E-01 3.23671390E+00 9.78261247E-02
1.97699650E-01 3.10335560E+00 9.51814567E-02
2.01198760E-01 3.11873530E+00 9.38230021E-02
2.04697860E-01 2.95046970E+00 9.25537047E-02
2.08196980E-01 2.92525720E+00 9.22436002E-02
2.11696090E-01 3.08061240E+00 9.58102212E-02
2.15195190E-01 2.92786120E+00 9.35721898E-02
2.18694300E-01 2.66503140E+00 8.85739681E-02
2.22193410E-01 2.85360050E+00 9.26863495E-02
2.25692530E-01 2.68762020E+00 8.85097723E-02
2.29191630E-01 2.69943070E+00 8.95651437E-02
2.32690740E-01 2.63465020E+00 8.80402960E-02
2.36189840E-01 2.62747880E+00 8.72251944E-02
2.39688950E-01 2.62504630E+00 8.77898720E-02
2.43188070E-01 2.52795150E+00 8.48490565E-02
2.46687170E-01 2.71077970E+00 8.86803372E-02
2.50186290E-01 2.57808420E+00 8.54746677E-02
2.53685380E-01 2.57098510E+00 8.54569816E-02
2.57184510E-01 2.52823930E+00 8.46843944E-02
2.60683600E-01 2.57326200E+00 8.44147714E-02
2.64182720E-01 2.54840060E+00 8.47072434E-02
2.67681840E-01 2.73438360E+00 8.62675543E-02
2.71180930E-01 2.75406650E+00 8.60402945E-02
2.74680050E-01 2.70852490E+00 8.30068793E-02
2.78179140E-01 2.65417910E+00 8.04060903E-02
2.81678260E-01 2.66434760E+00 8.03268083E-02
2.85177380E-01 2.76461390E+00 7.98974142E-02
2.88676470E-01 2.75061130E+00 7.95915664E-02
2.92175590E-01 2.84085800E+00 7.97740066E-02
2.95674680E-01 2.81690790E+00 7.87693554E-02
2.99173800E-01 2.82055140E+00 7.83074165E-02
3.02672920E-01 2.82596180E+00 7.74186281E-02
3.06172010E-01 3.02285220E+00 7.98115915E-02
3.09671130E-01 2.99365190E+00 7.83918221E-02
3.13170250E-01 2.97238210E+00 7.79351460E-02
3.16669340E-01 3.07500930E+00 7.84222060E-02
3.20168470E-01 2.93731780E+00 7.61518776E-02
3.23667560E-01 2.89967660E+00 7.54802030E-02
3.27166680E-01 3.16127940E+00 7.76525390E-02
3.30665800E-01 3.13115720E+00 7.72000259E-02
3.34164890E-01 3.22377850E+00 7.75922877E-02
3.37664010E-01 3.21919630E+00 7.72289809E-02
3.41163100E-01 3.22781940E+00 7.69766046E-02
3.44662220E-01 3.28915290E+00 7.66802226E-02
3.48161340E-01 3.24857000E+00 7.62488317E-02
3.51660430E-01 3.27024220E+00 7.56746551E-02
3.55159550E-01 3.26179080E+00 7.54286901E-02
3.58658640E-01 3.19519450E+00 7.41101967E-02
3.62157760E-01 3.24352260E+00 7.41545587E-02
3.65656880E-01 3.26739380E+00 7.42703849E-02
3.69155970E-01 3.26839260E+00 7.35873097E-02
3.72655090E-01 3.33310770E+00 7.40620199E-02
3.76154210E-01 3.37263200E+00 7.40986495E-02
3.79653300E-01 3.45019960E+00 7.44000444E-02
3.83152430E-01 3.38989930E+00 7.37862441E-02
3.86651520E-01 3.44225340E+00 7.33487267E-02
3.90150640E-01 3.51564240E+00 7.42311443E-02
3.93649760E-01 3.42578840E+00 7.28086216E-02
3.97148850E-01 3.36101630E+00 7.15027704E-02
4.00647970E-01 3.47713920E+00 7.29404294E-02
4.04147060E-01 3.45670220E+00 7.15607600E-02
4.07646180E-01 3.39655520E+00 7.12826339E-02
4.11145300E-01 3.36536480E+00 7.03121397E-02
4.14644390E-01 3.37562680E+00 7.00069300E-02
4.18143510E-01 3.41926720E+00 7.04981264E-02
4.21642600E-01 3.44322800E+00 6.98993125E-02
4.25141720E-01 3.37289240E+00 6.93762542E-02
4.28640840E-01 3.29733230E+00 6.78482941E-02
4.32139930E-01 3.30601430E+00 6.79117557E-02
4.35639050E-01 3.28309350E+00 6.74292048E-02
4.39138140E-01 3.23279980E+00 6.62395533E-02
4.42637260E-01 3.15930100E+00 6.57446017E-02
4.46136390E-01 3.13897870E+00 6.46706743E-02
4.49635480E-01 3.14577650E+00 6.48543505E-02
4.53134600E-01 3.21210770E+00 6.52294006E-02
4.56633720E-01 3.11244490E+00 6.36725821E-02
4.60132810E-01 3.01582500E+00 6.29054052E-02
4.63631930E-01 2.98585820E+00 6.17019694E-02
4.67131020E-01 2.98323370E+00 6.19051377E-02
4.70630140E-01 2.95624350E+00 6.11547667E-02
4.74129260E-01 2.89173820E+00 6.10892044E-02
4.77628350E-01 2.95015240E+00 6.24175386E-02
4.81127470E-01 2.78950570E+00 6.05091006E-02
4.84626560E-01 2.74732300E+00 6.06617565E-02
4.88125680E-01 2.77377390E+00 6.06682532E-02
4.91624800E-01 2.72623400E+00 6.04102797E-02
4.95123890E-01 2.72062350E+00 6.04455212E-02
4.98623010E-01 2.64606570E+00 5.93337269E-02
5.02122100E-01 2.51694250E+00 5.83122787E-02
5.05621250E-01 2.58655740E+00 5.85399470E-02
5.09120350E-01 2.55036120E+00 5.85149887E-02
5.12619440E-01 2.39450100E+00 5.66432597E-02
5.16118530E-01 2.36211060E+00 5.59466933E-02
5.19617680E-01 2.35114980E+00 5.62638863E-02
5.23116770E-01 2.23761750E+00 5.42274082E-02
5.26615860E-01 2.39123630E+00 5.65211101E-02
5.30115010E-01 2.16371820E+00 5.34782411E-02
5.33614100E-01 2.24046590E+00 5.44027343E-02
5.37113190E-01 2.26794120E+00 5.48603516E-02
5.40612340E-01 2.13488290E+00 5.20591530E-02
5.44111430E-01 2.06743910E+00 5.09207320E-02
5.47610520E-01 2.15964150E+00 5.12239005E-02
5.51109610E-01 2.08585410E+00 5.01545004E-02
5.54608760E-01 2.04893880E+00 4.94186867E-02
5.58107850E-01 1.95159940E+00 4.77245768E-02
5.61606940E-01 1.93288370E+00 4.75539358E-02
5.65106090E-01 1.94162950E+00 4.69965702E-02
5.68605180E-01 1.87158520E+00 4.62297089E-02
5.72104280E-01 1.86175360E+00 4.58254892E-02
5.75603430E-01 1.82804270E+00 4.50085980E-02
5.79102520E-01 1.79999660E+00 4.47736245E-02
5.82601610E-01 1.71760310E+00 4.31674511E-02
5.86100760E-01 1.71112600E+00 4.32146964E-02
5.89599850E-01 1.69978810E+00 4.27157424E-02
5.93098940E-01 1.66112630E+00 4.21141479E-02
5.96598030E-01 1.60107540E+00 4.12619589E-02
6.00097180E-01 1.68832400E+00 4.19778870E-02
6.03596270E-01 1.58078100E+00 4.07526309E-02
6.07095360E-01 1.55217870E+00 3.99363715E-02
6.10594510E-01 1.54346860E+00 3.98466682E-02
6.14093600E-01 1.58260880E+00 4.02091214E-02
6.17592690E-01 1.54812230E+00 3.94737634E-02
6.21091840E-01 1.48364320E+00 3.87511148E-02
6.24590930E-01 1.46504380E+00 3.80550113E-02
6.28090020E-01 1.48261810E+00 3.84069960E-02
6.31589110E-01 1.38079790E+00 3.68809344E-02
6.35088260E-01 1.39940600E+00 3.68804406E-02
6.38587360E-01 1.36672720E+00 3.65443232E-02
6.42086450E-01 1.32894660E+00 3.56620560E-02
6.45585600E-01 1.33659720E+00 3.58634694E-02
6.49084690E-01 1.33837580E+00 3.56122090E-02
6.52583780E-01 1.28304960E+00 3.48202698E-02
6.56082930E-01 1.32343460E+00 3.53013872E-02
6.59582020E-01 1.28289960E+00 3.45168272E-02
6.63081110E-01 1.33349680E+00 3.52383874E-02
6.66580260E-01 1.27028850E+00 3.41352682E-02
6.70079350E-01 1.25749270E+00 3.39293263E-02
6.73578440E-01 1.27102350E+00 3.40615249E-02
6.77077530E-01 1.23183480E+00 3.32645950E-02
6.80576680E-01 1.14717640E+00 3.21535073E-02
6.84075770E-01 1.15066840E+00 3.19719008E-02
6.87574860E-01 1.14495940E+00 3.18845622E-02
6.91074010E-01 1.14133930E+00 3.17945852E-02
6.94573100E-01 1.11098860E+00 3.10793303E-02
6.98072200E-01 1.08789310E+00 3.08347113E-02
7.01571350E-01 1.09571700E+00 3.07417946E-02
7.05070440E-01 1.09085040E+00 3.06524871E-02
7.08569530E-01 1.11409350E+00 3.08661550E-02
7.12068680E-01 1.07998380E+00 3.02926623E-02
7.15567770E-01 1.06229750E+00 3.00085105E-02
7.19066860E-01 1.05855920E+00 2.98059268E-02
7.22565950E-01 1.05210630E+00 2.97232388E-02
7.26065100E-01 1.06354950E+00 2.97571007E-02
7.29564190E-01 1.07088450E+00 2.97557117E-02
7.33063280E-01 1.00948290E+00 2.88734756E-02
7.36562430E-01 1.01229990E+00 2.86403470E-02
7.40061520E-01 9.99807000E-01 2.85349282E-02
7.43560610E-01 9.72001140E-01 2.79630237E-02
7.47059760E-01 9.61550710E-01 2.78041299E-02
7.50558850E-01 9.61221750E-01 2.77389410E-02
7.54057940E-01 9.81773910E-01 2.78984935E-02
7.57557030E-01 9.68262430E-01 2.77668124E-02
7.61056180E-01 9.50814840E-01 2.73072849E-02
7.64555280E-01 9.35314120E-01 2.71274890E-02
7.68054370E-01 9.39785900E-01 2.70260640E-02
7.71553520E-01 9.45211770E-01 2.70670367E-02
7.75052610E-01 9.40506940E-01 2.69523186E-02
7.78551700E-01 9.34911670E-01 2.67281301E-02
7.82050850E-01 9.21992360E-01 2.66068658E-02
7.85549940E-01 8.92720640E-01 2.59596549E-02
7.89049030E-01 8.67936130E-01 2.56503409E-02
7.92548180E-01 9.02315380E-01 2.60693327E-02
7.96047270E-01 9.15865300E-01 2.61339475E-02
7.99546360E-01 8.99645980E-01 2.59850797E-02
8.03045450E-01 8.74889970E-01 2.53554573E-02
8.06544600E-01 9.00547270E-01 2.58406284E-02
8.10043690E-01 8.42934790E-01 2.48657258E-02
8.13542780E-01 8.32009260E-01 2.46387945E-02
8.17041930E-01 8.56437440E-01 2.50188104E-02
8.20541020E-01 8.42530910E-01 2.46340367E-02
8.24040110E-01 8.47485010E-01 2.47781387E-02
8.27539270E-01 8.18201600E-01 2.42157849E-02
8.31038360E-01 8.31065830E-01 2.47109344E-02
8.34537450E-01 8.74405620E-01 2.54909220E-02
8.38036540E-01 8.10768660E-01 2.45351185E-02
8.41535690E-01 8.16895900E-01 2.48294160E-02
8.45034780E-01 8.25969760E-01 2.48351639E-02
8.48533870E-01 7.88815680E-01 2.44220016E-02
8.52033020E-01 8.53069540E-01 2.54137912E-02
8.55532110E-01 8.13774590E-01 2.47289032E-02
8.59031200E-01 7.83255400E-01 2.43884850E-02
8.62530350E-01 8.15868020E-01 2.46676853E-02
8.66029440E-01 7.61868830E-01 2.39718592E-02
8.69528530E-01 7.90647860E-01 2.43056698E-02
8.73027680E-01 7.38911810E-01 2.37829359E-02
8.76526770E-01 7.67186050E-01 2.45249486E-02
8.80025860E-01 7.65947280E-01 2.45359403E-02
8.83524950E-01 7.48191650E-01 2.45221355E-02
8.87024100E-01 7.49282120E-01 2.44959902E-02
8.90523200E-01 7.58904280E-01 2.48538603E-02
8.94022290E-01 7.78809250E-01 2.52732448E-02
8.97521440E-01 7.37940490E-01 2.45457913E-02
9.01020530E-01 7.79029850E-01 2.54270568E-02
9.04519620E-01 7.84220340E-01 2.53346615E-02
9.08018770E-01 7.76285170E-01 2.53916939E-02
9.11517860E-01 7.39247680E-01 2.47803879E-02
9.15016950E-01 7.27963150E-01 2.45489260E-02
9.18516040E-01 7.45074510E-01 2.50461259E-02
9.22015190E-01 7.57397350E-01 2.51264484E-02
9.25514280E-01 7.38588930E-01 2.50391467E-02
9.29013370E-01 7.44759560E-01 2.50575513E-02
9.32512520E-01 7.58117560E-01 2.53889213E-02
9.36011610E-01 7.66496480E-01 2.56262657E-02
9.39510700E-01 7.10651100E-01 2.45885055E-02
9.43009850E-01 7.24158050E-01 2.50380317E-02
9.46508940E-01 7.21304000E-01 2.49338682E-02
9.50008030E-01 7.24353130E-01 2.55587588E-02
9.53507180E-01 7.20927830E-01 2.57708847E-02
9.57006280E-01 7.12893130E-01 2.57119359E-02
9.60505370E-01 7.35929550E-01 2.65096124E-02
9.64004460E-01 7.56476640E-01 2.67519140E-02
9.67503610E-01 7.77859150E-01 2.75026386E-02
9.71002700E-01 6.99932400E-01 2.61410846E-02
9.74501790E-01 7.27150140E-01 2.67168734E-02
9.78000940E-01 7.37999920E-01 2.71818392E-02
9.81500030E-01 7.48198270E-01 2.72751300E-02
9.84999120E-01 7.31643680E-01 2.73165937E-02
9.88498270E-01 7.42718880E-01 2.74452946E-02
9.91997360E-01 7.38061850E-01 2.75783811E-02
9.95496450E-01 7.20411660E-01 2.73883169E-02
9.98995540E-01 6.92335250E-01 2.67804694E-02
1.00249470E+00 7.21069220E-01 2.76746781E-02
1.00599380E+00 6.78335070E-01 2.66607064E-02
1.00949290E+00 6.61638980E-01 2.66081889E-02
1.01299200E+00 6.83462140E-01 2.71110084E-02
1.01649120E+00 7.36815870E-01 2.80896930E-02
1.01999020E+00 7.29197500E-01 2.83091627E-02
1.02348940E+00 7.03788460E-01 2.75359343E-02
1.02698840E+00 6.94717820E-01 2.77508589E-02
1.03048750E+00 6.84849380E-01 2.75297175E-02
1.03398670E+00 7.60203060E-01 2.91359491E-02
1.03748570E+00 7.20326360E-01 2.85973189E-02
1.04098490E+00 7.06815300E-01 2.82239291E-02
1.04448400E+00 7.28149470E-01 2.90346759E-02
1.04798310E+00 7.09435050E-01 2.85050012E-02
1.05148220E+00 7.03721460E-01 2.86732150E-02
1.05498140E+00 6.78483370E-01 2.82835102E-02
1.05848040E+00 6.97404800E-01 2.86067010E-02
1.06197950E+00 6.87208410E-01 2.88029992E-02
1.06547870E+00 6.97188620E-01 2.87522785E-02
1.06897770E+00 6.41186650E-01 2.79568539E-02
1.07247690E+00 6.69629690E-01 2.86299964E-02
1.07597600E+00 7.42331390E-01 3.00929172E-02
1.07947500E+00 6.88546240E-01 2.93636568E-02
1.08297420E+00 6.36374590E-01 2.80065650E-02
1.08647330E+00 6.65185990E-01 2.90629286E-02
1.08997240E+00 6.27735020E-01 2.81182129E-02
1.09347150E+00 6.85687300E-01 2.95977837E-02
1.09697070E+00 7.06474960E-01 3.02470616E-02
1.10046970E+00 6.90445720E-01 2.97637206E-02
1.10396890E+00 6.21916120E-01 2.86764057E-02
1.10746790E+00 6.85206170E-01 2.98607167E-02
1.11096700E+00 6.92545830E-01 3.03590886E-02
1.11446620E+00 6.48456340E-01 2.95159078E-02
1.11796520E+00 6.32738470E-01 2.90177613E-02
1.12146440E+00 6.55054210E-01 3.00487041E-02
1.12496350E+00 6.71554860E-01 3.00210612E-02
1.12846260E+00 6.86272140E-01 3.08752937E-02
1.13196170E+00 6.79792230E-01 3.06940104E-02
1.13546090E+00 6.41134800E-01 2.98297219E-02
1.13895990E+00 6.42084300E-01 3.02186831E-02
1.14245900E+00 6.38891700E-01 2.98671248E-02
1.14595820E+00 6.07032840E-01 2.96619401E-02
1.14945720E+00 7.00166340E-01 3.15442703E-02
1.15295640E+00 6.43061400E-01 3.06304564E-02
1.15645550E+00 6.52333800E-01 3.09115198E-02
1.15995450E+00 6.73601330E-01 3.13962039E-02
1.16345370E+00 6.19110520E-01 3.05015926E-02
1.16695280E+00 6.01459320E-01 2.97672377E-02
1.17045190E+00 5.81586720E-01 2.96703228E-02
1.17395100E+00 6.12194540E-01 3.04693234E-02
1.17745020E+00 6.07570410E-01 3.03925104E-02
1.18094920E+00 5.96001680E-01 3.05210831E-02
1.18444840E+00 6.44885360E-01 3.13713730E-02
1.18794740E+00 6.52719380E-01 3.20995275E-02
1.19144650E+00 6.20126370E-01 3.11254876E-02
1.19494570E+00 6.11368240E-01 3.11925121E-02
1.19844470E+00 6.39846090E-01 3.19672193E-02
1.20194390E+00 6.74134550E-01 3.29317031E-02
1.20544300E+00 6.35867830E-01 3.22348378E-02
1.20894210E+00 6.27803800E-01 3.19188693E-02
1.21244120E+00 6.45903590E-01 3.27155364E-02
1.21594040E+00 5.75316970E-01 3.14290518E-02
1.21943940E+00 6.03632330E-01 3.35433496E-02
1.22293850E+00 6.42542060E-01 3.54737161E-02
1.22643770E+00 6.80506050E-01 3.69481262E-02
1.22993670E+00 6.55505600E-01 3.73276803E-02
1.23343590E+00 6.14397530E-01 3.64885881E-02
1.23693500E+00 6.29245160E-01 3.77836475E-02
1.24043410E+00 6.12078550E-01 3.80135831E-02
1.24393320E+00 5.75690090E-01 3.71635352E-02
1.24743240E+00 6.34378610E-01 3.99671947E-02
1.25093140E+00 5.95582840E-01 3.92869525E-02
1.25443050E+00 6.21608080E-01 4.07896388E-02
1.25792970E+00 5.93695880E-01 4.07067296E-02
1.26142870E+00 6.45319400E-01 4.28076559E-02
1.26492790E+00 6.10945110E-01 4.24259581E-02
1.26842690E+00 6.15305900E-01 4.31866164E-02
1.27192600E+00 6.06474520E-01 4.34099977E-02
1.27542520E+00 5.81519070E-01 4.32642684E-02
1.27892420E+00 6.34351020E-01 4.57623476E-02
1.28242340E+00 6.01987900E-01 4.52662877E-02
1.28592250E+00 5.36682190E-01 4.34879136E-02
1.28942160E+00 5.40050750E-01 4.40217516E-02
1.29292070E+00 5.33949140E-01 4.43682720E-02
1.29641990E+00 6.48300890E-01 4.95850411E-02
1.29991890E+00 6.48829940E-01 5.00017098E-02
1.30341800E+00 6.13533020E-01 4.93327573E-02
1.30691720E+00 5.73415760E-01 4.83623565E-02
1.31041620E+00 4.98403970E-01 4.54675971E-02
1.31391540E+00 6.35015130E-01 5.20970203E-02
1.31741450E+00 5.99470140E-01 5.13402484E-02
1.32091360E+00 6.17360830E-01 5.25900106E-02
1.32441270E+00 5.42787430E-01 5.00505588E-02
1.32791190E+00 6.01468320E-01 5.34932274E-02
1.33141090E+00 5.78331530E-01 5.29516339E-02
1.33491000E+00 5.96338810E-01 5.46270154E-02
1.33840920E+00 6.18446050E-01 5.64766962E-02
1.34190820E+00 5.10761080E-01 5.19257760E-02
1.34540740E+00 5.09726700E-01 5.26760016E-02
1.34890640E+00 6.02124210E-01 5.81725541E-02
1.35240550E+00 5.35695200E-01 5.56030594E-02
1.35590470E+00 5.04224480E-01 5.47911006E-02
1.35940370E+00 4.92856350E-01 5.50994052E-02
1.36290290E+00 5.24981140E-01 5.77501584E-02
1.36640200E+00 5.58055160E-01 6.04112316E-02
1.36990110E+00 5.21063980E-01 5.95078566E-02
1.37340020E+00 5.71711240E-01 6.35099532E-02
1.37689940E+00 5.48364340E-01 6.30619253E-02
1.38039840E+00 6.19970860E-01 6.83884886E-02
1.38389750E+00 5.41547950E-01 6.52565960E-02
1.38739670E+00 5.52081050E-01 6.70907030E-02
1.39089570E+00 5.67615630E-01 6.93071384E-02
1.39439490E+00 4.98939720E-01 6.64623479E-02
1.39789400E+00 5.24584350E-01 6.97804466E-02
1.40139310E+00 5.79700050E-01 7.47067157E-02
1.40489220E+00 5.32152060E-01 7.33509078E-02
1.40839140E+00 5.78728260E-01 7.85159647E-02
1.41189040E+00 4.81332360E-01 7.34961855E-02
1.41538950E+00 5.84325430E-01 8.28759259E-02
1.41888870E+00 6.26305760E-01 8.83972054E-02
1.42238770E+00 5.88592710E-01 8.84125128E-02
1.42588690E+00 5.90840040E-01 9.12544757E-02
1.42938590E+00 4.22539740E-01 7.95992917E-02
1.43288510E+00 3.49377130E-01 7.51091157E-02
1.43638420E+00 5.18272040E-01 9.51700184E-02
1.43988320E+00 5.50717290E-01 1.01791428E-01
1.44338240E+00 5.39863110E-01 1.05421898E-01
1.44688150E+00 3.76267610E-01 9.25861758E-02
1.45038060E+00 5.28471590E-01 1.15947169E-01
1.45387970E+00 5.08437750E-01 1.19793280E-01
1.45737890E+00 4.16966560E-01 1.15705266E-01
1.46087790E+00 4.66584590E-01 1.32747375E-01
