# working_directory=/home/msmile/Seafile/LINX/Projects/FP04.05_TetraPak/Milestone2_Stretching/
# fit2dfile=/home/msmile/Seafile/MartinS/projects/fit2dcorr/fit2d/fit2d_beta_18_002_Debian7_intel64
# macrofile=/home/msmile/Seafile/MartinS/projects/fit2dcorr/fit2d/fit2d_saxs_av_1.mac
#
# mask=4mm_cen.msk
# bcx=249.6 [pix]
# bcy=271.2 [pix]
# sdd=2000.0 [mm]
# lambda=1.5418 [Angstroem]
# pix_size=172.0 x 172.0 [microns x microns]
# array_size=487 x 619 [pix x pix]
# pix_x_r_out=1.0 [pix]
# pix_y_r_out=619.0 [pix]
# min_2theta=0.0000 [deg]
# max_2theta=2.1057 [deg]
# rad_max=427.5 [pix]
# rad_end=427.5 [pix]
# rad_bins=428
# min_Q=0.0000 [1/nm]
# max_Q=1.4977 [1/nm]
# x_scale_fac=1.0000
# pol_fac=0.990
#
# in=im_0058972_caz.tiff
# out=im_0058972_caz.chi_avg
# offset=4
# skipped lines=none
#
# Program called with: /home/msmile/Seafile/MartinS/projects/fit2dcorr/fit2dcorr -av 1 +mask 4mm_cen.msk +seq im_0058960_caz.tiff im_0058968_caz.tiff 4 10 +f im_0058971_caz.tiff im_0058972_caz.tiff +sdd 2000 +bc 249.64 271.19 +lambda auto +pix_size auto -nonnegative 
#
# Fit2D called with: /home/msmile/Seafile/MartinS/projects/fit2dcorr/fit2d/fit2d_beta_18_002_Debian7_intel64 -key -dim487x619 -fvar#SDD=2000.0 -fvar#LAMBDA=1.5418 -fvar#BCX=249.6 -fvar#BCY=271.2 -fvar#PIXSZ_X=172.0 -fvar#PIXSZ_Y=172.0 -fvar#POL_FAC=0.990 -svar#MASK=4mm_cen.msk -svar#CONSERVINT=NO -svar#FILE_IN=im_0058972_caz.tiff -svar#FILE_OUT=im_0058972_caz.chi_avg -ivar#RAD_BINS=428 -fvar#MAX_2THETA=2.1057 -mac/home/msmile/Seafile/MartinS/projects/fit2dcorr/fit2d/fit2d_saxs_av_1.mac
#
#     Q [1/nm]       I [a.u.]      dI [a.u.]
3.67406420E-02 1.17300130E+03 5.97637088E+01
4.02397510E-02 7.09845890E+02 8.91705167E+00
4.37388610E-02 5.09833100E+02 4.22929587E+00
4.72379700E-02 3.89850340E+02 2.89725443E+00
5.07370790E-02 2.98781890E+02 2.36342977E+00
5.42361890E-02 2.29910280E+02 1.88680168E+00
5.77352940E-02 1.81268620E+02 1.44016513E+00
6.12344030E-02 1.56483690E+02 1.26960796E+00
6.47335130E-02 1.29614900E+02 1.08807597E+00
6.82326260E-02 1.08244900E+02 9.85792332E-01
7.17317310E-02 9.36851350E+01 8.81700136E-01
7.52308370E-02 7.97674410E+01 7.96910658E-01
7.87299500E-02 6.97798000E+01 7.32255276E-01
8.22290550E-02 6.02661930E+01 6.56176247E-01
8.57281680E-02 5.34803470E+01 6.14389118E-01
8.92272740E-02 4.78008080E+01 5.59119452E-01
9.27263870E-02 4.26675830E+01 5.23501420E-01
9.62254930E-02 3.80951310E+01 4.85247056E-01
9.97245980E-02 3.40905800E+01 4.45833190E-01
1.03223710E-01 3.04329990E+01 4.19902695E-01
1.06722820E-01 2.81241280E+01 3.88923138E-01
1.10221930E-01 2.58726410E+01 3.72706156E-01
1.13721040E-01 2.28102380E+01 3.43190207E-01
1.17220150E-01 2.13205050E+01 3.23621926E-01
1.20719250E-01 1.96082440E+01 3.10213427E-01
1.24218370E-01 1.75436730E+01 2.84327189E-01
1.27717470E-01 1.68821330E+01 2.78564818E-01
1.31216590E-01 1.56783590E+01 2.62679757E-01
1.34715690E-01 1.47240930E+01 2.51917707E-01
1.38214800E-01 1.33239250E+01 2.37454912E-01
1.41713900E-01 1.24507210E+01 2.24328958E-01
1.45213020E-01 1.19637620E+01 2.19988990E-01
1.48712130E-01 1.12772180E+01 2.08203454E-01
1.52211230E-01 1.04932020E+01 2.00068616E-01
1.55710340E-01 9.97342590E+00 1.92911782E-01
1.59209450E-01 9.30518720E+00 1.82810684E-01
1.62708570E-01 8.55126570E+00 1.75392218E-01
1.66207670E-01 8.30661390E+00 1.68438586E-01
1.69706780E-01 7.87062640E+00 1.64126065E-01
1.73205880E-01 7.38328550E+00 1.56903644E-01
1.76705000E-01 7.20207260E+00 1.52478190E-01
1.80204110E-01 6.70493270E+00 1.47079375E-01
1.83703210E-01 6.81704620E+00 1.45001483E-01
1.87202320E-01 6.66711470E+00 1.43624859E-01
1.90701430E-01 6.14091210E+00 1.35549127E-01
1.94200550E-01 5.73694180E+00 1.30239551E-01
1.97699650E-01 5.72917750E+00 1.29325069E-01
2.01198760E-01 5.51166630E+00 1.24727299E-01
2.04697860E-01 5.37277410E+00 1.24895714E-01
2.08196980E-01 5.19835230E+00 1.22966575E-01
2.11696090E-01 4.92699000E+00 1.21166947E-01
2.15195190E-01 4.94697520E+00 1.21630203E-01
2.18694300E-01 4.85792350E+00 1.19585986E-01
2.22193410E-01 4.73050790E+00 1.19336439E-01
2.25692530E-01 4.57986500E+00 1.15540332E-01
2.29191630E-01 4.45944020E+00 1.15117967E-01
2.32690740E-01 4.33911610E+00 1.12984966E-01
2.36189840E-01 4.27163120E+00 1.11216497E-01
2.39688950E-01 4.38468070E+00 1.13460553E-01
2.43188070E-01 4.40118980E+00 1.11956085E-01
2.46687170E-01 4.27449660E+00 1.11358327E-01
2.50186290E-01 4.26107790E+00 1.09887587E-01
2.53685380E-01 4.11188170E+00 1.08073210E-01
2.57184510E-01 4.28615570E+00 1.10262602E-01
2.60683600E-01 4.02731510E+00 1.05604940E-01
2.64182720E-01 3.96300700E+00 1.05632881E-01
2.67681840E-01 4.04889150E+00 1.04974990E-01
2.71180930E-01 3.93807200E+00 1.02886047E-01
2.74680050E-01 4.00067570E+00 1.00882152E-01
2.78179140E-01 4.01073650E+00 9.88407208E-02
2.81678260E-01 4.06810050E+00 9.92569487E-02
2.85177380E-01 4.03996560E+00 9.65838049E-02
2.88676470E-01 3.95835090E+00 9.54793828E-02
2.92175590E-01 4.04191920E+00 9.51547474E-02
2.95674680E-01 4.11621140E+00 9.52181664E-02
2.99173800E-01 4.13358970E+00 9.47980849E-02
3.02672920E-01 4.20058110E+00 9.43880458E-02
3.06172010E-01 3.99646950E+00 9.17689525E-02
3.09671130E-01 4.03118560E+00 9.09675549E-02
3.13170250E-01 3.89029240E+00 8.91604346E-02
3.16669340E-01 4.15546460E+00 9.11644712E-02
3.20168470E-01 4.20103310E+00 9.10716533E-02
3.23667560E-01 4.12668560E+00 9.00448687E-02
3.27166680E-01 4.15784220E+00 8.90549849E-02
3.30665800E-01 4.30947210E+00 9.05684715E-02
3.34164890E-01 4.26053710E+00 8.92006718E-02
3.37664010E-01 4.18061590E+00 8.80089292E-02
3.41163100E-01 4.29220200E+00 8.87655050E-02
3.44662220E-01 4.31377270E+00 8.78152550E-02
3.48161340E-01 4.35539150E+00 8.82877956E-02
3.51660430E-01 4.30810070E+00 8.68567154E-02
3.55159550E-01 4.45072560E+00 8.81097432E-02
3.58658640E-01 4.46281860E+00 8.75858480E-02
3.62157760E-01 4.43489690E+00 8.67103953E-02
3.65656880E-01 4.37054440E+00 8.58979347E-02
3.69155970E-01 4.46721740E+00 8.60308741E-02
3.72655090E-01 4.54354430E+00 8.64705586E-02
3.76154210E-01 4.60554270E+00 8.65897001E-02
3.79653300E-01 4.46196170E+00 8.46085006E-02
3.83152430E-01 4.50263690E+00 8.50384730E-02
3.86651520E-01 4.46347620E+00 8.35233226E-02
3.90150640E-01 4.51352830E+00 8.41088908E-02
3.93649760E-01 4.57842870E+00 8.41706661E-02
3.97148850E-01 4.59381150E+00 8.35938144E-02
4.00647970E-01 4.65695290E+00 8.44127836E-02
4.04147060E-01 4.57470420E+00 8.23238154E-02
4.07646180E-01 4.57777260E+00 8.27544789E-02
4.11145300E-01 4.51141310E+00 8.14086486E-02
4.14644390E-01 4.48626570E+00 8.07060925E-02
4.18143510E-01 4.51214500E+00 8.09846264E-02
4.21642600E-01 4.54142570E+00 8.02760782E-02
4.25141720E-01 4.49887370E+00 8.01237903E-02
4.28640840E-01 4.48113730E+00 7.90954837E-02
4.32139930E-01 4.51844930E+00 7.93939346E-02
4.35639050E-01 4.42880490E+00 7.83158542E-02
4.39138140E-01 4.44522190E+00 7.76738285E-02
4.42637260E-01 4.41109560E+00 7.76851199E-02
4.46136390E-01 4.21051650E+00 7.48998440E-02
4.49635480E-01 4.28643470E+00 7.57047831E-02
4.53134600E-01 4.20591780E+00 7.46412170E-02
4.56633720E-01 4.23928120E+00 7.43100794E-02
4.60132810E-01 4.20935960E+00 7.43178127E-02
4.63631930E-01 4.12501140E+00 7.25232096E-02
4.67131020E-01 4.07839540E+00 7.23815228E-02
4.70630140E-01 4.02635000E+00 7.13700451E-02
4.74129260E-01 3.96704360E+00 7.15514559E-02
4.77628350E-01 3.90626620E+00 7.18232966E-02
4.81127470E-01 3.85787870E+00 7.11592487E-02
4.84626560E-01 3.90032200E+00 7.22787000E-02
4.88125680E-01 3.80236910E+00 7.10318463E-02
4.91624800E-01 3.72828340E+00 7.06453722E-02
4.95123890E-01 3.72193880E+00 7.06992034E-02
4.98623010E-01 3.70014720E+00 7.01634320E-02
5.02122100E-01 3.59319470E+00 6.96728747E-02
5.05621250E-01 3.58258300E+00 6.88952677E-02
5.09120350E-01 3.55709580E+00 6.91057300E-02
5.12619440E-01 3.53884100E+00 6.88606710E-02
5.16118530E-01 3.48081470E+00 6.79148515E-02
5.19617680E-01 3.44242430E+00 6.80803498E-02
5.23116770E-01 3.51608870E+00 6.79760360E-02
5.26615860E-01 3.35157160E+00 6.69150328E-02
5.30115010E-01 3.17472270E+00 6.47783177E-02
5.33614100E-01 3.27637120E+00 6.57882149E-02
5.37113190E-01 3.17434380E+00 6.49037321E-02
5.40612340E-01 3.13784790E+00 6.31140412E-02
5.44111430E-01 3.03738780E+00 6.17203514E-02
5.47610520E-01 3.03171590E+00 6.06912452E-02
5.51109610E-01 3.06705000E+00 6.08174729E-02
5.54608760E-01 3.04037760E+00 6.01991641E-02
5.58107850E-01 2.99810840E+00 5.91521307E-02
5.61606940E-01 2.95227310E+00 5.87708387E-02
5.65106090E-01 2.93327710E+00 5.77643017E-02
5.68605180E-01 2.82998180E+00 5.68470842E-02
5.72104280E-01 2.85160450E+00 5.67140514E-02
5.75603430E-01 2.77346300E+00 5.54387604E-02
5.79102520E-01 2.79387400E+00 5.57814546E-02
5.82601610E-01 2.75494550E+00 5.46703042E-02
5.86100760E-01 2.76410200E+00 5.49246773E-02
5.89599850E-01 2.77053550E+00 5.45346369E-02
5.93098940E-01 2.71397300E+00 5.38306288E-02
5.96598030E-01 2.73704310E+00 5.39491716E-02
6.00097180E-01 2.56430580E+00 5.17341798E-02
6.03596270E-01 2.50984190E+00 5.13503016E-02
6.07095360E-01 2.55555750E+00 5.12437096E-02
6.10594510E-01 2.53535340E+00 5.10695872E-02
6.14093600E-01 2.49261980E+00 5.04621578E-02
6.17592690E-01 2.47816510E+00 4.99425838E-02
6.21091840E-01 2.37335630E+00 4.90118309E-02
6.24590930E-01 2.38763000E+00 4.85814068E-02
6.28090020E-01 2.37800770E+00 4.86409817E-02
6.31589110E-01 2.37348630E+00 4.83537537E-02
6.35088260E-01 2.33887550E+00 4.76790684E-02
6.38587360E-01 2.35627870E+00 4.79835446E-02
6.42086450E-01 2.26667260E+00 4.65743705E-02
6.45585600E-01 2.29429980E+00 4.69869346E-02
6.49084690E-01 2.28638580E+00 4.65462429E-02
6.52583780E-01 2.27833770E+00 4.64001566E-02
6.56082930E-01 2.24408890E+00 4.59685250E-02
6.59582020E-01 2.17920300E+00 4.49866200E-02
6.63081110E-01 2.20330620E+00 4.52957519E-02
6.66580260E-01 2.25153990E+00 4.54456118E-02
6.70079350E-01 2.20090340E+00 4.48872511E-02
6.73578440E-01 2.21232700E+00 4.49378165E-02
6.77077530E-01 2.13007500E+00 4.37424829E-02
6.80576680E-01 2.09280990E+00 4.34288318E-02
6.84075770E-01 2.11893770E+00 4.33862841E-02
6.87574860E-01 2.11272220E+00 4.33118371E-02
6.91074010E-01 2.05451460E+00 4.26579919E-02
6.94573100E-01 2.05132600E+00 4.22312757E-02
6.98072200E-01 2.03811690E+00 4.22047484E-02
7.01571350E-01 1.98892830E+00 4.14180426E-02
7.05070440E-01 1.98480570E+00 4.13468196E-02
7.08569530E-01 2.01651430E+00 4.15262171E-02
7.12068680E-01 1.99711860E+00 4.11936942E-02
7.15567770E-01 1.91051210E+00 4.02435458E-02
7.19066860E-01 1.86707000E+00 3.95845171E-02
7.22565950E-01 1.84415660E+00 3.93518555E-02
7.26065100E-01 1.90527580E+00 3.98282006E-02
7.29564190E-01 1.85582790E+00 3.91712881E-02
7.33063280E-01 1.87265850E+00 3.93259169E-02
7.36562430E-01 1.85618880E+00 3.87824087E-02
7.40061520E-01 1.86691160E+00 3.89924543E-02
7.43560610E-01 1.85440020E+00 3.86235772E-02
7.47059760E-01 1.81641210E+00 3.82146965E-02
7.50558850E-01 1.81621690E+00 3.81295728E-02
7.54057940E-01 1.82254580E+00 3.80114332E-02
7.57557030E-01 1.79001620E+00 3.77535667E-02
7.61056180E-01 1.76877490E+00 3.72449011E-02
7.64555280E-01 1.72673790E+00 3.68590437E-02
7.68054370E-01 1.75857040E+00 3.69698935E-02
7.71553520E-01 1.71174090E+00 3.64246331E-02
7.75052610E-01 1.73849730E+00 3.66439366E-02
7.78551700E-01 1.72121320E+00 3.62660804E-02
7.82050850E-01 1.72972020E+00 3.64433246E-02
7.85549940E-01 1.75559480E+00 3.64043495E-02
7.89049030E-01 1.69892610E+00 3.58869465E-02
7.92548180E-01 1.66165770E+00 3.53770411E-02
7.96047270E-01 1.67481960E+00 3.53405442E-02
7.99546360E-01 1.74567270E+00 3.61967547E-02
8.03045450E-01 1.68431680E+00 3.51808737E-02
8.06544600E-01 1.61973730E+00 3.46554943E-02
8.10043690E-01 1.62820110E+00 3.45587610E-02
8.13542780E-01 1.63387060E+00 3.45274245E-02
8.17041930E-01 1.63629500E+00 3.45819612E-02
8.20541020E-01 1.67367490E+00 3.47198792E-02
8.24040110E-01 1.59785400E+00 3.40228928E-02
8.27539270E-01 1.62745440E+00 3.41525228E-02
8.31038360E-01 1.62116770E+00 3.45132171E-02
8.34537450E-01 1.55690460E+00 3.40141866E-02
8.38036540E-01 1.61617840E+00 3.46405153E-02
8.41535690E-01 1.58022560E+00 3.45336673E-02
8.45034780E-01 1.62841220E+00 3.48712185E-02
8.48533870E-01 1.59770560E+00 3.47569669E-02
8.52033020E-01 1.56552100E+00 3.44275946E-02
8.55532110E-01 1.58287670E+00 3.44886618E-02
8.59031200E-01 1.61013460E+00 3.49674684E-02
8.62530350E-01 1.51238930E+00 3.35853783E-02
8.66029440E-01 1.56009030E+00 3.43033434E-02
8.69528530E-01 1.53379640E+00 3.38532148E-02
8.73027680E-01 1.49431610E+00 3.38213080E-02
8.76526770E-01 1.55091500E+00 3.48699846E-02
8.80025860E-01 1.58193700E+00 3.52612635E-02
8.83524950E-01 1.55345480E+00 3.53346819E-02
8.87024100E-01 1.51314070E+00 3.48106358E-02
8.90523200E-01 1.47879340E+00 3.46939789E-02
8.94022290E-01 1.48722800E+00 3.49248226E-02
8.97521440E-01 1.58529330E+00 3.59766886E-02
9.01020530E-01 1.50187080E+00 3.53049298E-02
9.04519620E-01 1.49154950E+00 3.49393563E-02
9.08018770E-01 1.45415780E+00 3.47525584E-02
9.11517860E-01 1.48630650E+00 3.51372116E-02
9.15016950E-01 1.48791090E+00 3.50966984E-02
9.18516040E-01 1.48764490E+00 3.53907960E-02
9.22015190E-01 1.49176480E+00 3.52630104E-02
9.25514280E-01 1.50646340E+00 3.57599925E-02
9.29013370E-01 1.48348440E+00 3.53648714E-02
9.32512520E-01 1.49722720E+00 3.56795880E-02
9.36011610E-01 1.49742480E+00 3.58181165E-02
9.39510700E-01 1.45871910E+00 3.52281442E-02
9.43009850E-01 1.43071070E+00 3.51932540E-02
9.46508940E-01 1.42587070E+00 3.50566626E-02
9.50008030E-01 1.43753930E+00 3.60059647E-02
9.53507180E-01 1.45656800E+00 3.66310034E-02
9.57006280E-01 1.45627340E+00 3.67488717E-02
9.60505370E-01 1.45211660E+00 3.72379714E-02
9.64004460E-01 1.48629700E+00 3.74981544E-02
9.67503610E-01 1.49291090E+00 3.81013907E-02
9.71002700E-01 1.47086300E+00 3.78949780E-02
9.74501790E-01 1.42679680E+00 3.74243821E-02
9.78000940E-01 1.41445240E+00 3.76309219E-02
9.81500030E-01 1.39764080E+00 3.72783152E-02
9.84999120E-01 1.36201380E+00 3.72706941E-02
9.88498270E-01 1.40439680E+00 3.77398861E-02
9.91997360E-01 1.42224940E+00 3.82833796E-02
9.95496450E-01 1.35516990E+00 3.75640011E-02
9.98995540E-01 1.40912080E+00 3.82062197E-02
1.00249470E+00 1.35822650E+00 3.79822066E-02
1.00599380E+00 1.44363860E+00 3.88936567E-02
1.00949290E+00 1.42849670E+00 3.90970854E-02
1.01299200E+00 1.36578640E+00 3.83247970E-02
1.01649120E+00 1.39404060E+00 3.86371639E-02
1.01999020E+00 1.38312350E+00 3.89883557E-02
1.02348940E+00 1.38791740E+00 3.86687881E-02
1.02698840E+00 1.40688050E+00 3.94912459E-02
1.03048750E+00 1.36310990E+00 3.88391447E-02
1.03398670E+00 1.34181250E+00 3.87088513E-02
1.03748570E+00 1.34000980E+00 3.90044950E-02
1.04098490E+00 1.33856200E+00 3.88404043E-02
1.04448400E+00 1.34223590E+00 3.94204100E-02
1.04798310E+00 1.36590330E+00 3.95525710E-02
1.05148220E+00 1.35880830E+00 3.98432812E-02
1.05498140E+00 1.32256660E+00 3.94886670E-02
1.05848040E+00 1.32356370E+00 3.94092100E-02
1.06197950E+00 1.41080510E+00 4.12692903E-02
1.06547870E+00 1.34213920E+00 3.98929259E-02
1.06897770E+00 1.29694240E+00 3.97609201E-02
1.07247690E+00 1.33194730E+00 4.03782459E-02
1.07597600E+00 1.28593490E+00 3.96072658E-02
1.07947500E+00 1.25017760E+00 3.95666661E-02
1.08297420E+00 1.35913220E+00 4.09292960E-02
1.08647330E+00 1.34857440E+00 4.13814107E-02
1.08997240E+00 1.33135780E+00 4.09493431E-02
1.09347150E+00 1.34114620E+00 4.13936950E-02
1.09697070E+00 1.33196060E+00 4.15317747E-02
1.10046970E+00 1.25592770E+00 4.01425317E-02
1.10396890E+00 1.31457790E+00 4.16919265E-02
1.10746790E+00 1.27891900E+00 4.07953924E-02
1.11096700E+00 1.29560520E+00 4.15241569E-02
1.11446620E+00 1.30558110E+00 4.18810623E-02
1.11796520E+00 1.26181350E+00 4.09778678E-02
1.12146440E+00 1.26374350E+00 4.17365555E-02
1.12496350E+00 1.34742150E+00 4.25242857E-02
1.12846260E+00 1.30580770E+00 4.25895010E-02
1.13196170E+00 1.23989090E+00 4.14531256E-02
1.13546090E+00 1.24653980E+00 4.15937034E-02
1.13895990E+00 1.30085130E+00 4.30123669E-02
1.14245900E+00 1.24811170E+00 4.17451987E-02
1.14595820E+00 1.28748570E+00 4.31981030E-02
1.14945720E+00 1.22743380E+00 4.17656184E-02
1.15295640E+00 1.28842630E+00 4.33567811E-02
1.15645550E+00 1.29468170E+00 4.35478706E-02
1.15995450E+00 1.28160940E+00 4.33065432E-02
1.16345370E+00 1.27033140E+00 4.36915004E-02
1.16695280E+00 1.23921560E+00 4.27276329E-02
1.17045190E+00 1.19383140E+00 4.25095510E-02
1.17395100E+00 1.20580980E+00 4.27619488E-02
1.17745020E+00 1.23686660E+00 4.33640379E-02
1.18094920E+00 1.29285470E+00 4.49522124E-02
1.18444840E+00 1.26215060E+00 4.38882079E-02
1.18794740E+00 1.23388870E+00 4.41340068E-02
1.19144650E+00 1.28152290E+00 4.47444587E-02
1.19494570E+00 1.32718250E+00 4.59583305E-02
1.19844470E+00 1.25945910E+00 4.48496563E-02
1.20194390E+00 1.27046990E+00 4.52088130E-02
1.20544300E+00 1.22860070E+00 4.48071603E-02
1.20894210E+00 1.21807220E+00 4.44602629E-02
1.21244120E+00 1.23620310E+00 4.52600558E-02
1.21594040E+00 1.15787730E+00 4.45870726E-02
1.21943940E+00 1.19578650E+00 4.72114141E-02
1.22293850E+00 1.24300750E+00 4.93392739E-02
1.22643770E+00 1.17811640E+00 4.86150267E-02
1.22993670E+00 1.22921310E+00 5.11159413E-02
1.23343590E+00 1.22043050E+00 5.14267234E-02
1.23693500E+00 1.21322120E+00 5.24643050E-02
1.24043410E+00 1.12054250E+00 5.14338896E-02
1.24393320E+00 1.32493340E+00 5.63792973E-02
1.24743240E+00 1.15745600E+00 5.39860622E-02
1.25093140E+00 1.15909390E+00 5.48070682E-02
1.25443050E+00 1.27654910E+00 5.84534708E-02
1.25792970E+00 1.15742250E+00 5.68368702E-02
1.26142870E+00 1.13986220E+00 5.68931859E-02
1.26492790E+00 1.07302890E+00 5.62258792E-02
1.26842690E+00 1.14342420E+00 5.88718006E-02
1.27192600E+00 1.16407000E+00 6.01413291E-02
1.27542520E+00 1.14680620E+00 6.07564484E-02
1.27892420E+00 1.18085000E+00 6.24368279E-02
1.28242340E+00 1.16488440E+00 6.29683636E-02
1.28592250E+00 1.14383080E+00 6.34878900E-02
1.28942160E+00 1.14262710E+00 6.40327693E-02
1.29292070E+00 1.03758250E+00 6.18491725E-02
1.29641990E+00 1.10459330E+00 6.47237349E-02
1.29991890E+00 1.16056740E+00 6.68735873E-02
1.30341800E+00 1.22109700E+00 6.95971601E-02
1.30691720E+00 1.11223070E+00 6.73550389E-02
1.31041620E+00 1.12606990E+00 6.83429835E-02
1.31391540E+00 1.14771710E+00 7.00387323E-02
1.31741450E+00 1.10372850E+00 6.96635044E-02
1.32091360E+00 1.10957550E+00 7.05037366E-02
1.32441270E+00 1.19635470E+00 7.43060182E-02
1.32791190E+00 1.13017420E+00 7.33272031E-02
1.33141090E+00 1.14219060E+00 7.44149528E-02
1.33491000E+00 9.87091420E-01 7.02812720E-02
1.33840920E+00 1.18221400E+00 7.80847842E-02
1.34190820E+00 1.23870850E+00 8.08646410E-02
1.34540740E+00 1.10563290E+00 7.75799665E-02
1.34890640E+00 1.15230450E+00 8.04745825E-02
1.35240550E+00 1.14627390E+00 8.13362288E-02
1.35590470E+00 1.13863310E+00 8.23360377E-02
1.35940370E+00 1.07330250E+00 8.13107185E-02
1.36290290E+00 9.21094830E-01 7.64950755E-02
1.36640200E+00 9.85842170E-01 8.02939444E-02
1.36990110E+00 1.03606030E+00 8.39114651E-02
1.37340020E+00 9.85346670E-01 8.33773236E-02
1.37689940E+00 1.13055780E+00 9.05480295E-02
1.38039840E+00 1.06595060E+00 8.96738716E-02
1.38389750E+00 1.11255280E+00 9.35333040E-02
1.38739670E+00 1.07973960E+00 9.38254010E-02
1.39089570E+00 1.19286470E+00 1.00472313E-01
1.39439490E+00 1.10325240E+00 9.88300637E-02
1.39789400E+00 1.05227290E+00 9.88303397E-02
1.40139310E+00 1.10562440E+00 1.03171988E-01
1.40489220E+00 1.00784560E+00 1.00944952E-01
1.40839140E+00 8.78474060E-01 9.67353260E-02
1.41189040E+00 8.56649820E-01 9.80491714E-02
1.41538950E+00 8.95475630E-01 1.02595396E-01
1.41888870E+00 1.03683640E+00 1.13736657E-01
1.42238770E+00 9.61392460E-01 1.12994328E-01
1.42588690E+00 1.15060470E+00 1.27345111E-01
1.42938590E+00 1.13577540E+00 1.30503348E-01
1.43288510E+00 9.90206720E-01 1.26446950E-01
1.43638420E+00 8.82391810E-01 1.24180094E-01
1.43988320E+00 8.60165000E-01 1.27214832E-01
1.44338240E+00 8.57567850E-01 1.32868874E-01
1.44688150E+00 1.08437980E+00 1.57176794E-01
1.45038060E+00 1.00444440E+00 1.59849852E-01
1.45387970E+00 1.20524600E+00 1.84438422E-01
1.45737890E+00 9.43390250E-01 1.74039653E-01
1.46087790E+00 6.63365900E-01 1.58284108E-01
