# working_directory=/home/msmile/Seafile/LINX/Projects/FP04.05_TetraPak/Milestone2_Stretching/
# fit2dfile=/home/msmile/Seafile/MartinS/projects/fit2dcorr/fit2d/fit2d_beta_18_002_Debian7_intel64
# macrofile=/home/msmile/Seafile/MartinS/projects/fit2dcorr/fit2d/fit2d_saxs_av_1.mac
#
# mask=4mm_cen.msk
# bcx=249.6 [pix]
# bcy=271.2 [pix]
# sdd=2000.0 [mm]
# lambda=1.5418 [Angstroem]
# pix_size=172.0 x 172.0 [microns x microns]
# array_size=487 x 619 [pix x pix]
# pix_x_r_out=1.0 [pix]
# pix_y_r_out=619.0 [pix]
# min_2theta=0.0000 [deg]
# max_2theta=2.1057 [deg]
# rad_max=427.5 [pix]
# rad_end=427.5 [pix]
# rad_bins=428
# min_Q=0.0000 [1/nm]
# max_Q=1.4977 [1/nm]
# x_scale_fac=1.0000
# pol_fac=0.990
#
# in=im_0058964_caz.tiff
# out=im_0058964_caz.chi_avg
# offset=4
# skipped lines=none
#
# Program called with: /home/msmile/Seafile/MartinS/projects/fit2dcorr/fit2dcorr -av 1 +mask 4mm_cen.msk +seq im_0058960_caz.tiff im_0058968_caz.tiff 4 10 +f im_0058971_caz.tiff im_0058972_caz.tiff +sdd 2000 +bc 249.64 271.19 +lambda auto +pix_size auto -nonnegative 
#
# Fit2D called with: /home/msmile/Seafile/MartinS/projects/fit2dcorr/fit2d/fit2d_beta_18_002_Debian7_intel64 -key -dim487x619 -fvar#SDD=2000.0 -fvar#LAMBDA=1.5418 -fvar#BCX=249.6 -fvar#BCY=271.2 -fvar#PIXSZ_X=172.0 -fvar#PIXSZ_Y=172.0 -fvar#POL_FAC=0.990 -svar#MASK=4mm_cen.msk -svar#CONSERVINT=NO -svar#FILE_IN=im_0058964_caz.tiff -svar#FILE_OUT=im_0058964_caz.chi_avg -ivar#RAD_BINS=428 -fvar#MAX_2THETA=2.1057 -mac/home/msmile/Seafile/MartinS/projects/fit2dcorr/fit2d/fit2d_saxs_av_1.mac
#
#     Q [1/nm]       I [a.u.]      dI [a.u.]
3.67406420E-02 1.12600130E+03 5.85541580E+01
4.02397510E-02 7.04522460E+02 8.88355233E+00
4.37388610E-02 4.99891660E+02 4.18785840E+00
4.72379700E-02 3.83390560E+02 2.87315051E+00
5.07370790E-02 2.93823880E+02 2.34373829E+00
5.42361890E-02 2.27256240E+02 1.87587956E+00
5.77352940E-02 1.82161820E+02 1.44370899E+00
6.12344030E-02 1.53612790E+02 1.25790773E+00
6.47335130E-02 1.26883690E+02 1.07655115E+00
6.82326260E-02 1.07162020E+02 9.80849000E-01
7.17317310E-02 9.16120760E+01 8.71890475E-01
7.52308370E-02 7.96630860E+01 7.96389272E-01
7.87299500E-02 6.77608110E+01 7.21584105E-01
8.22290550E-02 5.93120120E+01 6.50960999E-01
8.57281680E-02 5.46964420E+01 6.21335198E-01
8.92272740E-02 4.73733900E+01 5.56614095E-01
9.27263870E-02 4.23328400E+01 5.21443840E-01
9.62254930E-02 3.84427870E+01 4.87456233E-01
9.97245980E-02 3.41387370E+01 4.46147979E-01
1.03223710E-01 3.09407810E+01 4.23391293E-01
1.06722820E-01 2.82566170E+01 3.89838148E-01
1.10221930E-01 2.52667260E+01 3.68316087E-01
1.13721040E-01 2.30331150E+01 3.44862787E-01
1.17220150E-01 2.09963130E+01 3.21152066E-01
1.20719250E-01 1.97072620E+01 3.10995703E-01
1.24218370E-01 1.79125400E+01 2.87300719E-01
1.27717470E-01 1.68046800E+01 2.77925085E-01
1.31216590E-01 1.53044170E+01 2.59528287E-01
1.34715690E-01 1.40528260E+01 2.46108293E-01
1.38214800E-01 1.32816050E+01 2.37077499E-01
1.41713900E-01 1.20519100E+01 2.20706944E-01
1.45213020E-01 1.16540210E+01 2.17122564E-01
1.48712130E-01 1.08147510E+01 2.03889664E-01
1.52211230E-01 1.03511980E+01 1.98710243E-01
1.55710340E-01 9.83352850E+00 1.91554012E-01
1.59209450E-01 9.13160040E+00 1.81097511E-01
1.62708570E-01 8.53637310E+00 1.75239419E-01
1.66207670E-01 7.78361560E+00 1.63049800E-01
1.69706780E-01 7.53222420E+00 1.60558957E-01
1.73205880E-01 7.31097790E+00 1.56133439E-01
1.76705000E-01 6.90797950E+00 1.49332551E-01
1.80204110E-01 6.76808600E+00 1.47770415E-01
1.83703210E-01 6.49287650E+00 1.41511875E-01
1.87202320E-01 6.29771280E+00 1.39589283E-01
1.90701430E-01 5.98154740E+00 1.33778733E-01
1.94200550E-01 5.66349840E+00 1.29403218E-01
1.97699650E-01 5.54261210E+00 1.27201963E-01
2.01198760E-01 5.40270520E+00 1.23488266E-01
2.04697860E-01 5.41308590E+00 1.25363382E-01
2.08196980E-01 5.10961910E+00 1.21912568E-01
2.11696090E-01 5.04917760E+00 1.22660192E-01
2.15195190E-01 4.82178210E+00 1.20081294E-01
2.18694300E-01 4.70276930E+00 1.17660797E-01
2.22193410E-01 4.55663110E+00 1.17122717E-01
2.25692530E-01 4.58748390E+00 1.15636398E-01
2.29191630E-01 4.54713730E+00 1.16244390E-01
2.32690740E-01 4.42018270E+00 1.14035513E-01
2.36189840E-01 4.20772310E+00 1.10381405E-01
2.39688950E-01 4.27278380E+00 1.12003446E-01
2.43188070E-01 4.13301940E+00 1.08491668E-01
2.46687170E-01 3.99383190E+00 1.07640356E-01
2.50186290E-01 4.06280900E+00 1.07300579E-01
2.53685380E-01 4.07994510E+00 1.07652702E-01
2.57184510E-01 3.95496700E+00 1.05917011E-01
2.60683600E-01 3.84823160E+00 1.03230263E-01
2.64182720E-01 3.90135620E+00 1.04808017E-01
2.67681840E-01 3.90058230E+00 1.03034453E-01
2.71180930E-01 4.03152940E+00 1.04099721E-01
2.74680050E-01 3.79286190E+00 9.82270710E-02
2.78179140E-01 3.79616450E+00 9.61604182E-02
2.81678260E-01 3.86539410E+00 9.67524510E-02
2.85177380E-01 3.93488260E+00 9.53194135E-02
2.88676470E-01 3.84987900E+00 9.41620709E-02
2.92175590E-01 3.73350240E+00 9.14523445E-02
2.95674680E-01 3.74784450E+00 9.08577041E-02
2.99173800E-01 3.83294440E+00 9.12855741E-02
3.02672920E-01 3.92433480E+00 9.12316129E-02
3.06172010E-01 3.79400830E+00 8.94142336E-02
3.09671130E-01 3.84711550E+00 8.88664297E-02
3.13170250E-01 3.94129090E+00 8.97429383E-02
3.16669340E-01 3.88151740E+00 8.81082561E-02
3.20168470E-01 3.90100980E+00 8.77594051E-02
3.23667560E-01 3.69967410E+00 8.52589571E-02
3.27166680E-01 3.77033380E+00 8.48035674E-02
3.30665800E-01 3.87713220E+00 8.59053712E-02
3.34164890E-01 3.93216320E+00 8.56942585E-02
3.37664010E-01 3.96120720E+00 8.56683412E-02
3.41163100E-01 3.80969740E+00 8.36275531E-02
3.44662220E-01 3.94031210E+00 8.39279549E-02
3.48161340E-01 3.89409540E+00 8.34815251E-02
3.51660430E-01 3.94113250E+00 8.30751245E-02
3.55159550E-01 4.01929280E+00 8.37304261E-02
3.58658640E-01 3.82161430E+00 8.10499501E-02
3.62157760E-01 3.82531090E+00 8.05309390E-02
3.65656880E-01 3.97972350E+00 8.19674454E-02
3.69155970E-01 3.88879590E+00 8.02681728E-02
3.72655090E-01 3.93717050E+00 8.04939032E-02
3.76154210E-01 3.84100700E+00 7.90766679E-02
3.79653300E-01 3.79190160E+00 7.79973080E-02
3.83152430E-01 3.89493300E+00 7.90918993E-02
3.86651520E-01 3.80271890E+00 7.70935898E-02
3.90150640E-01 3.91015030E+00 7.82853554E-02
3.93649760E-01 3.89407970E+00 7.76255970E-02
3.97148850E-01 3.85044650E+00 7.65320083E-02
4.00647970E-01 3.86552550E+00 7.69062382E-02
4.04147060E-01 3.86748620E+00 7.56934598E-02
4.07646180E-01 3.82113270E+00 7.56067311E-02
4.11145300E-01 3.73416330E+00 7.40646398E-02
4.14644390E-01 3.68713400E+00 7.31658260E-02
4.18143510E-01 3.74875240E+00 7.38166688E-02
4.21642600E-01 3.79112010E+00 7.33455557E-02
4.25141720E-01 3.81189660E+00 7.37530786E-02
4.28640840E-01 3.66999480E+00 7.15797706E-02
4.32139930E-01 3.58362030E+00 7.07055648E-02
4.35639050E-01 3.58321190E+00 7.04437813E-02
4.39138140E-01 3.58537940E+00 6.97582442E-02
4.42637260E-01 3.56388830E+00 6.98275247E-02
4.46136390E-01 3.55634880E+00 6.88359580E-02
4.49635480E-01 3.58886000E+00 6.92713178E-02
4.53134600E-01 3.54674390E+00 6.85430248E-02
4.56633720E-01 3.48831490E+00 6.74076931E-02
4.60132810E-01 3.50494190E+00 6.78149278E-02
4.63631930E-01 3.42043160E+00 6.60396710E-02
4.67131020E-01 3.38737080E+00 6.59651307E-02
4.70630140E-01 3.26651840E+00 6.42839804E-02
4.74129260E-01 3.43998340E+00 6.66289802E-02
4.77628350E-01 3.40196250E+00 6.70269050E-02
4.81127470E-01 3.43694620E+00 6.71650630E-02
4.84626560E-01 3.37010120E+00 6.71864314E-02
4.88125680E-01 3.21583680E+00 6.53240304E-02
4.91624800E-01 3.18170480E+00 6.52618237E-02
4.95123890E-01 3.32005120E+00 6.67732162E-02
4.98623010E-01 3.24300480E+00 6.56863456E-02
5.02122100E-01 3.12026000E+00 6.49260140E-02
5.05621250E-01 3.07223490E+00 6.37996761E-02
5.09120350E-01 3.05696200E+00 6.40635941E-02
5.12619440E-01 3.11694050E+00 6.46256592E-02
5.16118530E-01 3.11269570E+00 6.42233024E-02
5.19617680E-01 3.10420080E+00 6.46494006E-02
5.23116770E-01 2.94706850E+00 6.22330450E-02
5.26615860E-01 3.01999190E+00 6.35188054E-02
5.30115010E-01 2.94279530E+00 6.23672793E-02
5.33614100E-01 2.92608500E+00 6.21720266E-02
5.37113190E-01 2.97995710E+00 6.28850918E-02
5.40612340E-01 2.88950590E+00 6.05650177E-02
5.44111430E-01 2.94897150E+00 6.08153978E-02
5.47610520E-01 2.91002990E+00 5.94607702E-02
5.51109610E-01 2.79422710E+00 5.80495418E-02
5.54608760E-01 2.74691030E+00 5.72201409E-02
5.58107850E-01 2.75156380E+00 5.66678233E-02
5.61606940E-01 2.70030810E+00 5.62069861E-02
5.65106090E-01 2.67388440E+00 5.51511137E-02
5.68605180E-01 2.70441290E+00 5.55715963E-02
5.72104280E-01 2.63940530E+00 5.45631036E-02
5.75603430E-01 2.57839970E+00 5.34536607E-02
5.79102520E-01 2.50573470E+00 5.28267584E-02
5.82601610E-01 2.56304070E+00 5.27318172E-02
5.86100760E-01 2.60311320E+00 5.33012005E-02
5.89599850E-01 2.56880740E+00 5.25117314E-02
5.93098940E-01 2.54444530E+00 5.21222639E-02
5.96598030E-01 2.43451360E+00 5.08803461E-02
6.00097180E-01 2.44223280E+00 5.04877683E-02
6.03596270E-01 2.44359640E+00 5.06680903E-02
6.07095360E-01 2.40887380E+00 4.97513373E-02
6.10594510E-01 2.35964580E+00 4.92681774E-02
6.14093600E-01 2.32572270E+00 4.87435066E-02
6.17592690E-01 2.32605910E+00 4.83856188E-02
6.21091840E-01 2.30896040E+00 4.83423427E-02
6.24590930E-01 2.31311010E+00 4.78172616E-02
6.28090020E-01 2.26904990E+00 4.75135747E-02
6.31589110E-01 2.20579910E+00 4.66143683E-02
6.35088260E-01 2.26072670E+00 4.68757522E-02
6.38587360E-01 2.21191070E+00 4.64903449E-02
6.42086450E-01 2.15789440E+00 4.54430718E-02
6.45585600E-01 2.16791250E+00 4.56744075E-02
6.49084690E-01 2.20464830E+00 4.57066655E-02
6.52583780E-01 2.15907380E+00 4.51693824E-02
6.56082930E-01 2.18318680E+00 4.53404679E-02
6.59582020E-01 2.12898090E+00 4.44652181E-02
6.63081110E-01 2.07378200E+00 4.39442045E-02
6.66580260E-01 2.08635190E+00 4.37467606E-02
6.70079350E-01 2.05731840E+00 4.33983547E-02
6.73578440E-01 2.09311270E+00 4.37102837E-02
6.77077530E-01 2.06145480E+00 4.30321374E-02
6.80576680E-01 2.02384020E+00 4.27072242E-02
6.84075770E-01 2.00578140E+00 4.22119273E-02
6.87574860E-01 1.96079600E+00 4.17255064E-02
6.91074010E-01 1.98766360E+00 4.19582372E-02
6.94573100E-01 1.92303710E+00 4.08893965E-02
6.98072200E-01 1.93565270E+00 4.11301709E-02
7.01571350E-01 1.85710730E+00 4.00219747E-02
7.05070440E-01 1.92055500E+00 4.06720883E-02
7.08569530E-01 1.91277250E+00 4.04439312E-02
7.12068680E-01 1.86399230E+00 3.97970503E-02
7.15567770E-01 1.83364240E+00 3.94256319E-02
7.19066860E-01 1.92456480E+00 4.01893818E-02
7.22565950E-01 1.91451730E+00 4.00955308E-02
7.26065100E-01 1.79319110E+00 3.86389252E-02
7.29564190E-01 1.79996880E+00 3.85772685E-02
7.33063280E-01 1.82145320E+00 3.87845332E-02
7.36562430E-01 1.85182790E+00 3.87368253E-02
7.40061520E-01 1.78611730E+00 3.81393854E-02
7.43560610E-01 1.70043850E+00 3.69854777E-02
7.47059760E-01 1.72560700E+00 3.72472447E-02
7.50558850E-01 1.72639080E+00 3.71747141E-02
7.54057940E-01 1.75166460E+00 3.72649455E-02
7.57557030E-01 1.71763590E+00 3.69823967E-02
7.61056180E-01 1.72161420E+00 3.67450170E-02
7.64555280E-01 1.65603920E+00 3.60965873E-02
7.68054370E-01 1.69130240E+00 3.62559222E-02
7.71553520E-01 1.68154340E+00 3.61019122E-02
7.75052610E-01 1.73667430E+00 3.66247203E-02
7.78551700E-01 1.69363250E+00 3.59743425E-02
7.82050850E-01 1.66487250E+00 3.57536639E-02
7.85549940E-01 1.61912440E+00 3.49607893E-02
7.89049030E-01 1.65725280E+00 3.54440734E-02
7.92548180E-01 1.66056530E+00 3.53654115E-02
7.96047270E-01 1.61076940E+00 3.46581919E-02
7.99546360E-01 1.62620710E+00 3.49362390E-02
8.03045450E-01 1.59036950E+00 3.41856414E-02
8.06544600E-01 1.64740460E+00 3.49502239E-02
8.10043690E-01 1.63106630E+00 3.45891534E-02
8.13542780E-01 1.64898550E+00 3.46867643E-02
8.17041930E-01 1.63442650E+00 3.45622111E-02
8.20541020E-01 1.57168390E+00 3.36453672E-02
8.24040110E-01 1.58993270E+00 3.39384544E-02
8.27539270E-01 1.53983650E+00 3.32204620E-02
8.31038360E-01 1.53212830E+00 3.35520466E-02
8.34537450E-01 1.61173470E+00 3.46079484E-02
8.38036540E-01 1.58957420E+00 3.43542205E-02
8.41535690E-01 1.59625480E+00 3.47083724E-02
8.45034780E-01 1.61046600E+00 3.46785339E-02
8.48533870E-01 1.56804030E+00 3.44327826E-02
8.52033020E-01 1.49675430E+00 3.36629743E-02
8.55532110E-01 1.51845090E+00 3.37794975E-02
8.59031200E-01 1.56604590E+00 3.44854080E-02
8.62530350E-01 1.51073750E+00 3.35670324E-02
8.66029440E-01 1.51356430E+00 3.37879646E-02
8.69528530E-01 1.53052210E+00 3.38170607E-02
8.73027680E-01 1.47151180E+00 3.35622480E-02
8.76526770E-01 1.49438710E+00 3.42286130E-02
8.80025860E-01 1.48402260E+00 3.41525813E-02
8.83524950E-01 1.48167040E+00 3.45086268E-02
8.87024100E-01 1.48747210E+00 3.45141139E-02
8.90523200E-01 1.47202240E+00 3.46144602E-02
8.94022290E-01 1.48813580E+00 3.49354807E-02
8.97521440E-01 1.44982950E+00 3.44052583E-02
9.01020530E-01 1.51381890E+00 3.54450856E-02
9.04519620E-01 1.50353710E+00 3.50794795E-02
9.08018770E-01 1.47499160E+00 3.50006265E-02
9.11517860E-01 1.50409040E+00 3.53467969E-02
9.15016950E-01 1.46140810E+00 3.47827210E-02
9.18516040E-01 1.47691380E+00 3.52629208E-02
9.22015190E-01 1.50561740E+00 3.54263584E-02
9.25514280E-01 1.51017730E+00 3.58040447E-02
9.29013370E-01 1.44460730E+00 3.48983993E-02
9.32512520E-01 1.46957770E+00 3.53486033E-02
9.36011610E-01 1.48586460E+00 3.56795888E-02
9.39510700E-01 1.49156700E+00 3.56225743E-02
9.43009850E-01 1.43959020E+00 3.53022952E-02
9.46508940E-01 1.43939890E+00 3.52225735E-02
9.50008030E-01 1.39320800E+00 3.54464349E-02
9.53507180E-01 1.47738740E+00 3.68918646E-02
9.57006280E-01 1.43277660E+00 3.64511980E-02
9.60505370E-01 1.44438780E+00 3.71387409E-02
9.64004460E-01 1.46796310E+00 3.72661613E-02
9.67503610E-01 1.43310050E+00 3.73303622E-02
9.71002700E-01 1.46808710E+00 3.78592018E-02
9.74501790E-01 1.45280980E+00 3.77639989E-02
9.78000940E-01 1.44025330E+00 3.79725812E-02
9.81500030E-01 1.36214790E+00 3.68019324E-02
9.84999120E-01 1.49749680E+00 3.90804604E-02
9.88498270E-01 1.44104020E+00 3.82290682E-02
9.91997360E-01 1.34749850E+00 3.72637451E-02
9.95496450E-01 1.33735250E+00 3.73162427E-02
9.98995540E-01 1.41641580E+00 3.83049894E-02
1.00249470E+00 1.39676270E+00 3.85172607E-02
1.00599380E+00 1.38408100E+00 3.80829239E-02
1.00949290E+00 1.38189940E+00 3.84541303E-02
1.01299200E+00 1.40571570E+00 3.88809804E-02
1.01649120E+00 1.41943910E+00 3.89875459E-02
1.01999020E+00 1.31982480E+00 3.80857553E-02
1.02348940E+00 1.33438270E+00 3.79156888E-02
1.02698840E+00 1.31530380E+00 3.81843365E-02
1.03048750E+00 1.34060550E+00 3.85172026E-02
1.03398670E+00 1.38005070E+00 3.92565274E-02
1.03748570E+00 1.35056350E+00 3.91577891E-02
1.04098490E+00 1.37448200E+00 3.93580918E-02
1.04448400E+00 1.31892910E+00 3.90766604E-02
1.04798310E+00 1.37704600E+00 3.97135739E-02
1.05148220E+00 1.42446550E+00 4.07945304E-02
1.05498140E+00 1.37747320E+00 4.03000202E-02
1.05848040E+00 1.35362720E+00 3.98542697E-02
1.06197950E+00 1.33985290E+00 4.02181457E-02
1.06547870E+00 1.33996650E+00 3.98606222E-02
1.06897770E+00 1.34655120E+00 4.05142231E-02
1.07247690E+00 1.30869030E+00 4.00241739E-02
1.07597600E+00 1.32544300E+00 4.02110979E-02
1.07947500E+00 1.33604860E+00 4.09029584E-02
1.08297420E+00 1.35422540E+00 4.08553469E-02
1.08647330E+00 1.32900570E+00 4.10800791E-02
1.08997240E+00 1.32504220E+00 4.08521002E-02
1.09347150E+00 1.31798850E+00 4.10347654E-02
1.09697070E+00 1.38077820E+00 4.22860152E-02
1.10046970E+00 1.36479000E+00 4.18461372E-02
1.10396890E+00 1.28238140E+00 4.11782056E-02
1.10746790E+00 1.27045170E+00 4.06601219E-02
1.11096700E+00 1.29560390E+00 4.15241361E-02
1.11446620E+00 1.31909100E+00 4.20971953E-02
1.11796520E+00 1.30861560E+00 4.17309094E-02
1.12146440E+00 1.30765180E+00 4.24554253E-02
1.12496350E+00 1.27822660E+00 4.14180077E-02
1.12846260E+00 1.22265540E+00 4.12111707E-02
1.13196170E+00 1.29186980E+00 4.23131082E-02
1.13546090E+00 1.30020330E+00 4.24795717E-02
1.13895990E+00 1.26667070E+00 4.24435180E-02
1.14245900E+00 1.27560440E+00 4.22024641E-02
1.14595820E+00 1.23807600E+00 4.23610888E-02
1.14945720E+00 1.22189750E+00 4.16713217E-02
1.15295640E+00 1.16148170E+00 4.11655032E-02
1.15645550E+00 1.26248150E+00 4.30029199E-02
1.15995450E+00 1.22268830E+00 4.22993360E-02
1.16345370E+00 1.26586620E+00 4.36146455E-02
1.16695280E+00 1.30622520E+00 4.38676570E-02
1.17045190E+00 1.23018560E+00 4.31519411E-02
1.17395100E+00 1.23894950E+00 4.33455878E-02
1.17745020E+00 1.29445550E+00 4.43620756E-02
1.18094920E+00 1.19895140E+00 4.32889460E-02
1.18444840E+00 1.20881630E+00 4.29509144E-02
1.18794740E+00 1.21999030E+00 4.38847450E-02
1.19144650E+00 1.25537940E+00 4.42857038E-02
1.19494570E+00 1.17098410E+00 4.31692420E-02
1.19844470E+00 1.20218850E+00 4.38180840E-02
1.20194390E+00 1.24101390E+00 4.46816527E-02
1.20544300E+00 1.26413970E+00 4.54505983E-02
1.20894210E+00 1.27652240E+00 4.55144980E-02
1.21244120E+00 1.19352270E+00 4.44718847E-02
1.21594040E+00 1.19775470E+00 4.53483632E-02
1.21943940E+00 1.21518600E+00 4.75928316E-02
1.22293850E+00 1.17616760E+00 4.79943955E-02
1.22643770E+00 1.17592660E+00 4.85698262E-02
1.22993670E+00 1.19832750E+00 5.04696776E-02
1.23343590E+00 1.28085940E+00 5.26845256E-02
1.23693500E+00 1.17634590E+00 5.16608389E-02
1.24043410E+00 1.13054320E+00 5.16629012E-02
1.24393320E+00 1.07518830E+00 5.07884440E-02
1.24743240E+00 1.11932340E+00 5.30893257E-02
1.25093140E+00 1.17878190E+00 5.52705782E-02
1.25443050E+00 1.16297340E+00 5.57925762E-02
1.25792970E+00 1.20023290E+00 5.78784622E-02
1.26142870E+00 1.16108760E+00 5.74204506E-02
1.26492790E+00 1.21191050E+00 5.97538410E-02
1.26842690E+00 1.17196820E+00 5.96020967E-02
1.27192600E+00 1.18220540E+00 6.06079964E-02
1.27542520E+00 1.26192630E+00 6.37330037E-02
1.27892420E+00 1.18091140E+00 6.24384528E-02
1.28242340E+00 1.24095250E+00 6.49918053E-02
1.28592250E+00 1.16810210E+00 6.41579341E-02
1.28942160E+00 1.14747330E+00 6.41684151E-02
1.29292070E+00 1.15170420E+00 6.51617976E-02
1.29641990E+00 1.16826280E+00 6.65629623E-02
1.29991890E+00 1.12353060E+00 6.57978754E-02
1.30341800E+00 1.11045670E+00 6.63693030E-02
1.30691720E+00 1.20452300E+00 7.00938991E-02
1.31041620E+00 1.10176350E+00 6.76013629E-02
1.31391540E+00 1.22079230E+00 7.22340140E-02
1.31741450E+00 1.03857020E+00 6.75759471E-02
1.32091360E+00 1.02250960E+00 6.76811039E-02
1.32441270E+00 1.09720790E+00 7.11604181E-02
1.32791190E+00 9.55784440E-01 6.74329871E-02
1.33141090E+00 1.10078990E+00 7.30538549E-02
1.33491000E+00 1.18375930E+00 7.69648857E-02
1.33840920E+00 1.18539660E+00 7.81898227E-02
1.34190820E+00 1.18401380E+00 7.90592094E-02
1.34540740E+00 1.18959260E+00 8.04717114E-02
1.34890640E+00 1.14849910E+00 8.03415888E-02
1.35240550E+00 1.07770800E+00 7.88661054E-02
1.35590470E+00 1.15827010E+00 8.30429944E-02
1.35940370E+00 1.09357130E+00 8.20748832E-02
1.36290290E+00 1.17010390E+00 8.62171227E-02
1.36640200E+00 1.19436280E+00 8.83786265E-02
1.36990110E+00 1.10624810E+00 8.67071764E-02
1.37340020E+00 1.04564690E+00 8.58906618E-02
1.37689940E+00 1.04820850E+00 8.71879490E-02
1.38039840E+00 1.24477730E+00 9.69043308E-02
1.38389750E+00 1.06806580E+00 9.16442005E-02
1.38739670E+00 9.88299910E-01 8.97646389E-02
1.39089570E+00 1.06477590E+00 9.49248465E-02
1.39439490E+00 1.09533690E+00 9.84748847E-02
1.39789400E+00 1.07970690E+00 1.00110358E-01
1.40139310E+00 1.06813250E+00 1.01407603E-01
1.40489220E+00 8.60644760E-01 9.32823741E-02
1.40839140E+00 1.00276820E+00 1.03352484E-01
1.41189040E+00 1.12506010E+00 1.12364766E-01
1.41538950E+00 1.08771070E+00 1.13072682E-01
1.41888870E+00 9.81237170E-01 1.10645138E-01
1.42238770E+00 1.08899100E+00 1.20259234E-01
1.42588690E+00 1.13366440E+00 1.26404195E-01
1.42938590E+00 1.16793080E+00 1.32337822E-01
1.43288510E+00 1.06223270E+00 1.30964996E-01
1.43638420E+00 1.01560180E+00 1.33224158E-01
1.43988320E+00 1.08333840E+00 1.42767356E-01
1.44338240E+00 1.23004110E+00 1.59128814E-01
1.44688150E+00 1.03861890E+00 1.53824616E-01
1.45038060E+00 8.06605640E-01 1.43245154E-01
1.45387970E+00 7.54145090E-01 1.45895203E-01
1.45737890E+00 1.14737580E+00 1.91935522E-01
1.46087790E+00 7.52634530E-01 1.68598150E-01
