# working_directory=/home/msmile/Seafile/LINX/Projects/FP04.05_TetraPak/Milestone2_Stretching/
# fit2dfile=/home/msmile/Seafile/MartinS/projects/fit2dcorr/fit2d/fit2d_beta_18_002_Debian7_intel64
# macrofile=/home/msmile/Seafile/MartinS/projects/fit2dcorr/fit2d/fit2d_saxs_av_1.mac
#
# mask=4mm_cen.msk
# bcx=249.6 [pix]
# bcy=271.2 [pix]
# sdd=2000.0 [mm]
# lambda=1.5418 [Angstroem]
# pix_size=172.0 x 172.0 [microns x microns]
# array_size=487 x 619 [pix x pix]
# pix_x_r_out=1.0 [pix]
# pix_y_r_out=619.0 [pix]
# min_2theta=0.0000 [deg]
# max_2theta=2.1057 [deg]
# rad_max=427.5 [pix]
# rad_end=427.5 [pix]
# rad_bins=428
# min_Q=0.0000 [1/nm]
# max_Q=1.4977 [1/nm]
# x_scale_fac=1.0000
# pol_fac=0.990
#
# in=im_0058962_caz.tiff
# out=im_0058962_caz.chi_avg
# offset=4
# skipped lines=none
#
# Program called with: /home/msmile/Seafile/MartinS/projects/fit2dcorr/fit2dcorr -av 1 +mask 4mm_cen.msk +seq im_0058960_caz.tiff im_0058968_caz.tiff 4 10 +f im_0058971_caz.tiff im_0058972_caz.tiff +sdd 2000 +bc 249.64 271.19 +lambda auto +pix_size auto -nonnegative 
#
# Fit2D called with: /home/msmile/Seafile/MartinS/projects/fit2dcorr/fit2d/fit2d_beta_18_002_Debian7_intel64 -key -dim487x619 -fvar#SDD=2000.0 -fvar#LAMBDA=1.5418 -fvar#BCX=249.6 -fvar#BCY=271.2 -fvar#PIXSZ_X=172.0 -fvar#PIXSZ_Y=172.0 -fvar#POL_FAC=0.990 -svar#MASK=4mm_cen.msk -svar#CONSERVINT=NO -svar#FILE_IN=im_0058962_caz.tiff -svar#FILE_OUT=im_0058962_caz.chi_avg -ivar#RAD_BINS=428 -fvar#MAX_2THETA=2.1057 -mac/home/msmile/Seafile/MartinS/projects/fit2dcorr/fit2d/fit2d_saxs_av_1.mac
#
#     Q [1/nm]       I [a.u.]      dI [a.u.]
3.67406420E-02 1.26400150E+03 6.20386166E+01
4.02397510E-02 7.99643800E+02 9.46427874E+00
4.37388610E-02 5.79779050E+02 4.51009115E+00
4.72379700E-02 4.55108760E+02 3.13036723E+00
5.07370790E-02 3.44035830E+02 2.53610605E+00
5.42361890E-02 2.63488980E+02 2.01989262E+00
5.77352940E-02 2.03798630E+02 1.52704421E+00
6.12344030E-02 1.75574100E+02 1.34482365E+00
6.47335130E-02 1.45556560E+02 1.15304871E+00
6.82326260E-02 1.20103420E+02 1.03838739E+00
7.17317310E-02 1.03719170E+02 9.27716097E-01
7.52308370E-02 8.75406110E+01 8.34836845E-01
7.87299500E-02 7.68036960E+01 7.68225475E-01
8.22290550E-02 6.63703690E+01 6.88605929E-01
8.57281680E-02 5.89203000E+01 6.44879965E-01
8.92272740E-02 5.27559850E+01 5.87384989E-01
9.27263870E-02 4.61066130E+01 5.44189879E-01
9.62254930E-02 4.18885690E+01 5.08833780E-01
9.97245980E-02 3.75788990E+01 4.68087698E-01
1.03223710E-01 3.34950680E+01 4.40521110E-01
1.06722820E-01 3.04350450E+01 4.04586343E-01
1.10221930E-01 2.75178600E+01 3.84373565E-01
1.13721040E-01 2.51673260E+01 3.60486101E-01
1.17220150E-01 2.31245670E+01 3.37035767E-01
1.20719250E-01 2.13418870E+01 3.23636627E-01
1.24218370E-01 1.96094070E+01 3.00600956E-01
1.27717470E-01 1.80804370E+01 2.88281713E-01
1.31216590E-01 1.66944100E+01 2.71057763E-01
1.34715690E-01 1.52135400E+01 2.56070504E-01
1.38214800E-01 1.43549520E+01 2.46471058E-01
1.41713900E-01 1.36852430E+01 2.35187560E-01
1.45213020E-01 1.27598520E+01 2.27190352E-01
1.48712130E-01 1.18174510E+01 2.13132097E-01
1.52211230E-01 1.10120650E+01 2.04955382E-01
1.55710340E-01 1.01447110E+01 1.94561266E-01
1.59209450E-01 1.00544180E+01 1.90027947E-01
1.62708570E-01 9.38283820E+00 1.83722445E-01
1.66207670E-01 8.66572860E+00 1.72041065E-01
1.69706780E-01 8.57505510E+00 1.71313411E-01
1.73205880E-01 8.23495770E+00 1.65706252E-01
1.76705000E-01 8.05962090E+00 1.61300719E-01
1.80204110E-01 7.53079220E+00 1.55874440E-01
1.83703210E-01 7.30425930E+00 1.50093681E-01
1.87202320E-01 6.91412930E+00 1.46261293E-01
1.90701430E-01 6.78737070E+00 1.42505320E-01
1.94200550E-01 6.68744330E+00 1.40615357E-01
1.97699650E-01 6.24390550E+00 1.35009627E-01
2.01198760E-01 6.16542580E+00 1.31917248E-01
2.04697860E-01 5.98537060E+00 1.31823784E-01
2.08196980E-01 5.80145170E+00 1.29904006E-01
2.11696090E-01 5.80164050E+00 1.31482732E-01
2.15195190E-01 5.78689100E+00 1.31551015E-01
2.18694300E-01 5.68096070E+00 1.29320038E-01
2.22193410E-01 5.72570660E+00 1.31290633E-01
2.25692530E-01 5.50755450E+00 1.26702932E-01
2.29191630E-01 5.27384330E+00 1.25189112E-01
2.32690740E-01 5.24070360E+00 1.24169465E-01
2.36189840E-01 5.25624320E+00 1.23370142E-01
2.39688950E-01 5.05916830E+00 1.21875243E-01
2.43188070E-01 5.20731070E+00 1.21778159E-01
2.46687170E-01 4.95271250E+00 1.19867592E-01
2.50186290E-01 5.08721780E+00 1.20068484E-01
2.53685380E-01 4.92020560E+00 1.18219576E-01
2.57184510E-01 4.80753800E+00 1.16776551E-01
2.60683600E-01 4.89910790E+00 1.16475594E-01
2.64182720E-01 5.02394390E+00 1.18934843E-01
2.67681840E-01 4.90630670E+00 1.15556687E-01
2.71180930E-01 5.02694700E+00 1.16242999E-01
2.74680050E-01 5.03860760E+00 1.13214729E-01
2.78179140E-01 5.24360750E+00 1.13015735E-01
2.81678260E-01 5.30848030E+00 1.13383582E-01
2.85177380E-01 5.24116370E+00 1.10009286E-01
2.88676470E-01 5.07388830E+00 1.08099305E-01
2.92175590E-01 5.24495840E+00 1.08394599E-01
2.95674680E-01 5.24466420E+00 1.07480535E-01
2.99173800E-01 5.14667370E+00 1.05778937E-01
3.02672920E-01 5.24677520E+00 1.05489340E-01
3.06172010E-01 5.23671100E+00 1.05047764E-01
3.09671130E-01 5.36953780E+00 1.04987734E-01
3.13170250E-01 5.56104280E+00 1.06600480E-01
3.16669340E-01 5.55577610E+00 1.05411550E-01
3.20168470E-01 5.61218930E+00 1.05261922E-01
3.23667560E-01 5.47793250E+00 1.03744863E-01
3.27166680E-01 5.59709360E+00 1.03325021E-01
3.30665800E-01 5.68974830E+00 1.04066643E-01
3.34164890E-01 5.79155160E+00 1.04000022E-01
3.37664010E-01 5.70244070E+00 1.02786712E-01
3.41163100E-01 5.74393420E+00 1.02685438E-01
3.44662220E-01 5.70818570E+00 1.01016051E-01
3.48161340E-01 5.82546090E+00 1.02106230E-01
3.51660430E-01 5.83116200E+00 1.01050400E-01
3.55159550E-01 5.85629370E+00 1.01069455E-01
3.58658640E-01 6.03081660E+00 1.01816315E-01
3.62157760E-01 6.00019120E+00 1.00858369E-01
3.65656880E-01 5.83574440E+00 9.92574409E-02
3.69155970E-01 5.85756110E+00 9.85131517E-02
3.72655090E-01 5.82290120E+00 9.78905101E-02
3.76154210E-01 5.89300010E+00 9.79476518E-02
3.79653300E-01 5.94159510E+00 9.76343427E-02
3.83152430E-01 5.90102150E+00 9.73521617E-02
3.86651520E-01 6.04861070E+00 9.72297035E-02
3.90150640E-01 6.03257700E+00 9.72378290E-02
3.93649760E-01 6.03842160E+00 9.66638875E-02
3.97148850E-01 5.82207730E+00 9.41080029E-02
4.00647970E-01 5.92518710E+00 9.52156447E-02
4.04147060E-01 5.85496660E+00 9.31335535E-02
4.07646180E-01 5.88049320E+00 9.37931815E-02
4.11145300E-01 5.79238220E+00 9.22450013E-02
4.14644390E-01 5.80612610E+00 9.18136066E-02
4.18143510E-01 5.74263140E+00 9.13621945E-02
4.21642600E-01 5.67967700E+00 8.97742630E-02
4.25141720E-01 5.65753650E+00 8.98510763E-02
4.28640840E-01 5.69584040E+00 8.91736392E-02
4.32139930E-01 5.58022790E+00 8.82304630E-02
4.35639050E-01 5.61922410E+00 8.82154379E-02
4.39138140E-01 5.52259920E+00 8.65764421E-02
4.42637260E-01 5.51137780E+00 8.68349778E-02
4.46136390E-01 5.35819150E+00 8.44933073E-02
4.49635480E-01 5.27895550E+00 8.40135256E-02
4.53134600E-01 5.28977110E+00 8.37079638E-02
4.56633720E-01 5.31571480E+00 8.32113255E-02
4.60132810E-01 5.22671320E+00 8.28131380E-02
4.63631930E-01 5.19070340E+00 8.13537452E-02
4.67131020E-01 5.03521060E+00 8.04251499E-02
4.70630140E-01 5.03645130E+00 7.98219889E-02
4.74129260E-01 4.97708460E+00 8.01442761E-02
4.77628350E-01 4.92337850E+00 8.06335962E-02
4.81127470E-01 4.77941660E+00 7.92035260E-02
4.84626560E-01 4.87247420E+00 8.07857707E-02
4.88125680E-01 4.79666330E+00 7.97802873E-02
4.91624800E-01 4.59409520E+00 7.84204387E-02
4.95123890E-01 4.72813800E+00 7.96847058E-02
4.98623010E-01 4.59507040E+00 7.81893157E-02
5.02122100E-01 4.62779090E+00 7.90697247E-02
5.05621250E-01 4.48212670E+00 7.70607684E-02
5.09120350E-01 4.41157340E+00 7.69596412E-02
5.12619440E-01 4.35407300E+00 7.63815660E-02
5.16118530E-01 4.38403510E+00 7.62186598E-02
5.19617680E-01 4.33140660E+00 7.63667072E-02
5.23116770E-01 4.22818610E+00 7.45423345E-02
5.26615860E-01 4.27952620E+00 7.56131404E-02
5.30115010E-01 4.16962910E+00 7.42378676E-02
5.33614100E-01 4.00467300E+00 7.27336016E-02
5.37113190E-01 3.92394110E+00 7.21612310E-02
5.40612340E-01 3.94643280E+00 7.07803012E-02
5.44111430E-01 3.85980510E+00 6.95762398E-02
5.47610520E-01 3.83630470E+00 6.82713263E-02
5.51109610E-01 3.80007200E+00 6.76961319E-02
5.54608760E-01 3.72565340E+00 6.66389166E-02
5.58107850E-01 3.65103220E+00 6.52761552E-02
5.61606940E-01 3.69310310E+00 6.57323760E-02
5.65106090E-01 3.51365800E+00 6.32212003E-02
5.68605180E-01 3.43439840E+00 6.26241297E-02
5.72104280E-01 3.44191100E+00 6.23082898E-02
5.75603430E-01 3.39753960E+00 6.13598929E-02
5.79102520E-01 3.37405230E+00 6.13002612E-02
5.82601610E-01 3.26937290E+00 5.95562336E-02
5.86100760E-01 3.15520760E+00 5.86819371E-02
5.89599850E-01 3.14552570E+00 5.81081696E-02
5.93098940E-01 3.16309210E+00 5.81142459E-02
5.96598030E-01 3.09630820E+00 5.73807248E-02
6.00097180E-01 3.06743000E+00 5.65822207E-02
6.03596270E-01 3.00999070E+00 5.62344405E-02
6.07095360E-01 3.02513240E+00 5.57532159E-02
6.10594510E-01 3.01723600E+00 5.57118697E-02
6.14093600E-01 2.94083790E+00 5.48117099E-02
6.17592690E-01 2.87179350E+00 5.37628783E-02
6.21091840E-01 2.84875250E+00 5.36966046E-02
6.24590930E-01 2.81376270E+00 5.27388053E-02
6.28090020E-01 2.76816890E+00 5.24797760E-02
6.31589110E-01 2.71557190E+00 5.17210678E-02
6.35088260E-01 2.69331910E+00 5.11644269E-02
6.38587360E-01 2.68424530E+00 5.12141642E-02
6.42086450E-01 2.60373500E+00 4.99172875E-02
6.45585600E-01 2.64151190E+00 5.04171514E-02
6.49084690E-01 2.52482990E+00 4.89131839E-02
6.52583780E-01 2.49235650E+00 4.85305813E-02
6.56082930E-01 2.52841450E+00 4.87938038E-02
6.59582020E-01 2.49300740E+00 4.81167548E-02
6.63081110E-01 2.35593460E+00 4.68383565E-02
6.66580260E-01 2.36899210E+00 4.66158836E-02
6.70079350E-01 2.41956880E+00 4.70642867E-02
6.73578440E-01 2.28485870E+00 4.56685242E-02
6.77077530E-01 2.37479590E+00 4.61869352E-02
6.80576680E-01 2.29673770E+00 4.54955534E-02
6.84075770E-01 2.24907990E+00 4.46987930E-02
6.87574860E-01 2.21010070E+00 4.42987485E-02
6.91074010E-01 2.19243570E+00 4.40665686E-02
6.94573100E-01 2.23615460E+00 4.40928111E-02
6.98072200E-01 2.24337580E+00 4.42790005E-02
7.01571350E-01 2.17837740E+00 4.33457526E-02
7.05070440E-01 2.13195010E+00 4.28520529E-02
7.08569530E-01 2.11167860E+00 4.24947837E-02
7.12068680E-01 2.05802300E+00 4.18171026E-02
7.15567770E-01 2.05634070E+00 4.17511923E-02
7.19066860E-01 2.08799720E+00 4.18610416E-02
7.22565950E-01 2.01315280E+00 4.11154158E-02
7.26065100E-01 1.92831100E+00 4.00682423E-02
7.29564190E-01 1.99403870E+00 4.06037169E-02
7.33063280E-01 2.00180600E+00 4.06593613E-02
7.36562430E-01 1.98567450E+00 4.01123142E-02
7.40061520E-01 1.97848150E+00 4.01406774E-02
7.43560610E-01 1.93042470E+00 3.94073476E-02
7.47059760E-01 1.90049180E+00 3.90891492E-02
7.50558850E-01 1.85521780E+00 3.85367903E-02
7.54057940E-01 1.90012280E+00 3.88119848E-02
7.57557030E-01 1.90589170E+00 3.89563806E-02
7.61056180E-01 1.85660310E+00 3.81583920E-02
7.64555280E-01 1.85559400E+00 3.82095850E-02
7.68054370E-01 1.78756140E+00 3.72733825E-02
7.71553520E-01 1.76803740E+00 3.70187606E-02
7.75052610E-01 1.86739420E+00 3.79780893E-02
7.78551700E-01 1.80488870E+00 3.71371425E-02
7.82050850E-01 1.81670690E+00 3.73484431E-02
7.85549940E-01 1.77823530E+00 3.66383363E-02
7.89049030E-01 1.74732010E+00 3.63944777E-02
7.92548180E-01 1.78767290E+00 3.66939746E-02
7.96047270E-01 1.79310670E+00 3.65672490E-02
7.99546360E-01 1.77057610E+00 3.64540284E-02
8.03045450E-01 1.67826080E+00 3.51175691E-02
8.06544600E-01 1.75777850E+00 3.61020525E-02
8.10043690E-01 1.69149510E+00 3.52240680E-02
8.13542780E-01 1.68189860E+00 3.50312216E-02
8.17041930E-01 1.62627600E+00 3.44759271E-02
8.20541020E-01 1.63315570E+00 3.42970244E-02
8.24040110E-01 1.66663210E+00 3.47474200E-02
8.27539270E-01 1.64204870E+00 3.43053129E-02
8.31038360E-01 1.63119960E+00 3.46198359E-02
8.34537450E-01 1.66529130E+00 3.51782457E-02
8.38036540E-01 1.60507980E+00 3.45213689E-02
8.41535690E-01 1.61558290E+00 3.49178707E-02
8.45034780E-01 1.64695820E+00 3.50692300E-02
8.48533870E-01 1.55302240E+00 3.42674946E-02
8.52033020E-01 1.56775490E+00 3.44521496E-02
8.55532110E-01 1.56804140E+00 3.43266613E-02
8.59031200E-01 1.51344550E+00 3.39013118E-02
8.62530350E-01 1.58567940E+00 3.43895224E-02
8.66029440E-01 1.56735490E+00 3.43831185E-02
8.69528530E-01 1.55121370E+00 3.40448840E-02
8.73027680E-01 1.54065720E+00 3.43417309E-02
8.76526770E-01 1.57735320E+00 3.51659397E-02
8.80025860E-01 1.57139120E+00 3.51435331E-02
8.83524950E-01 1.51914720E+00 3.49423253E-02
8.87024100E-01 1.56134570E+00 3.53607791E-02
8.90523200E-01 1.50197710E+00 3.49648773E-02
8.94022290E-01 1.51725110E+00 3.52755823E-02
8.97521440E-01 1.51190710E+00 3.51341072E-02
9.01020530E-01 1.47801320E+00 3.50233929E-02
9.04519620E-01 1.51657760E+00 3.52312757E-02
9.08018770E-01 1.47394070E+00 3.49881535E-02
9.11517860E-01 1.49567470E+00 3.52477721E-02
9.15016950E-01 1.51451600E+00 3.54090873E-02
9.18516040E-01 1.48763200E+00 3.53906433E-02
9.22015190E-01 1.48503980E+00 3.51834355E-02
9.25514280E-01 1.47967100E+00 3.54405709E-02
9.29013370E-01 1.49532030E+00 3.55056687E-02
9.32512520E-01 1.46124410E+00 3.52482340E-02
9.36011610E-01 1.48757870E+00 3.57001637E-02
9.39510700E-01 1.47816940E+00 3.54622286E-02
9.43009850E-01 1.48769280E+00 3.58872453E-02
9.46508940E-01 1.46736170E+00 3.55630584E-02
9.50008030E-01 1.43919400E+00 3.60266813E-02
9.53507180E-01 1.45007570E+00 3.65492736E-02
9.57006280E-01 1.40074430E+00 3.60414282E-02
9.60505370E-01 1.42931910E+00 3.69445047E-02
9.64004460E-01 1.46454540E+00 3.72227558E-02
9.67503610E-01 1.43216190E+00 3.73181352E-02
9.71002700E-01 1.50139730E+00 3.82862952E-02
9.74501790E-01 1.43953070E+00 3.75910142E-02
9.78000940E-01 1.40706100E+00 3.75324696E-02
9.81500030E-01 1.49875970E+00 3.86033042E-02
9.84999120E-01 1.45662830E+00 3.85434954E-02
9.88498270E-01 1.49181810E+00 3.88967764E-02
9.91997360E-01 1.40872050E+00 3.81008615E-02
9.95496450E-01 1.42569180E+00 3.85290054E-02
9.98995540E-01 1.44895010E+00 3.87424134E-02
1.00249470E+00 1.42661700E+00 3.89267194E-02
1.00599380E+00 1.43812820E+00 3.88193558E-02
1.00949290E+00 1.44584190E+00 3.93337331E-02
1.01299200E+00 1.45428000E+00 3.95469008E-02
1.01649120E+00 1.37175950E+00 3.83271474E-02
1.01999020E+00 1.37337930E+00 3.88507752E-02
1.02348940E+00 1.37603800E+00 3.85029467E-02
1.02698840E+00 1.35342610E+00 3.87337462E-02
1.03048750E+00 1.43831240E+00 3.98961355E-02
1.03398670E+00 1.35358170E+00 3.88782416E-02
1.03748570E+00 1.37756000E+00 3.95472180E-02
1.04098490E+00 1.34512770E+00 3.89355455E-02
1.04448400E+00 1.35967730E+00 3.96757044E-02
1.04798310E+00 1.38072730E+00 3.97666221E-02
1.05148220E+00 1.33981010E+00 3.95637661E-02
1.05498140E+00 1.34828050E+00 3.98706974E-02
1.05848040E+00 1.32781770E+00 3.94724912E-02
1.06197950E+00 1.36657500E+00 4.06172223E-02
1.06547870E+00 1.36524980E+00 4.02349232E-02
1.06897770E+00 1.41183810E+00 4.14847545E-02
1.07247690E+00 1.35692380E+00 4.07550712E-02
1.07597600E+00 1.34505060E+00 4.05074318E-02
1.07947500E+00 1.37595180E+00 4.15092818E-02
1.08297420E+00 1.34618130E+00 4.07338248E-02
1.08647330E+00 1.34792350E+00 4.13714230E-02
1.08997240E+00 1.35462130E+00 4.13055561E-02
1.09347150E+00 1.33238300E+00 4.12582368E-02
1.09697070E+00 1.31906090E+00 4.13301718E-02
1.10046970E+00 1.31694730E+00 4.11061333E-02
1.10396890E+00 1.28895950E+00 4.12836837E-02
1.10746790E+00 1.27873730E+00 4.07924935E-02
1.11096700E+00 1.26751730E+00 4.10715816E-02
1.11446620E+00 1.32126680E+00 4.21318978E-02
1.11796520E+00 1.31084720E+00 4.17664760E-02
1.12146440E+00 1.31780870E+00 4.26199860E-02
1.12496350E+00 1.32359800E+00 4.21466752E-02
1.12846260E+00 1.22966590E+00 4.13291523E-02
1.13196170E+00 1.22086920E+00 4.11339223E-02
1.13546090E+00 1.31879410E+00 4.27821896E-02
1.13895990E+00 1.28795430E+00 4.27986171E-02
1.14245900E+00 1.30340730E+00 4.26599030E-02
1.14595820E+00 1.31739970E+00 4.36970609E-02
1.14945720E+00 1.25155200E+00 4.21739554E-02
1.15295640E+00 1.26898440E+00 4.30284178E-02
1.15645550E+00 1.27455910E+00 4.32081221E-02
1.15995450E+00 1.24319280E+00 4.26525422E-02
1.16345370E+00 1.27506790E+00 4.37728772E-02
1.16695280E+00 1.25036510E+00 4.29194177E-02
1.17045190E+00 1.21855180E+00 4.29474154E-02
1.17395100E+00 1.25154090E+00 4.35652912E-02
1.17745020E+00 1.28684400E+00 4.42314565E-02
1.18094920E+00 1.20052790E+00 4.33173964E-02
1.18444840E+00 1.21002840E+00 4.29724446E-02
1.18794740E+00 1.29049350E+00 4.51349834E-02
1.19144650E+00 1.29896990E+00 4.50480102E-02
1.19494570E+00 1.23535610E+00 4.43399308E-02
1.19844470E+00 1.15358340E+00 4.29231502E-02
1.20194390E+00 1.23006400E+00 4.44840953E-02
1.20544300E+00 1.30095400E+00 4.61076540E-02
1.20894210E+00 1.27563760E+00 4.54987197E-02
1.21244120E+00 1.25447910E+00 4.55933922E-02
1.21594040E+00 1.24569230E+00 4.62469487E-02
1.21943940E+00 1.22729020E+00 4.78292767E-02
1.22293850E+00 1.22830930E+00 4.90466967E-02
1.22643770E+00 1.28732530E+00 5.08183531E-02
1.22993670E+00 1.16527930E+00 4.97688753E-02
1.23343590E+00 1.15455190E+00 5.00194679E-02
1.23693500E+00 1.22454150E+00 5.27085046E-02
1.24043410E+00 1.18285100E+00 5.28445543E-02
1.24393320E+00 1.25679020E+00 5.49103276E-02
1.24743240E+00 1.23011050E+00 5.56546525E-02
1.25093140E+00 1.19018160E+00 5.55371882E-02
1.25443050E+00 1.18944810E+00 5.64240546E-02
1.25792970E+00 1.21642510E+00 5.82675687E-02
1.26142870E+00 1.23035600E+00 5.91084400E-02
1.26492790E+00 1.16172060E+00 5.85034398E-02
1.26842690E+00 1.23542620E+00 6.11944509E-02
1.27192600E+00 1.20051720E+00 6.10755916E-02
1.27542520E+00 1.12897190E+00 6.02821764E-02
1.27892420E+00 1.18581570E+00 6.25679703E-02
1.28242340E+00 1.18353640E+00 6.34704851E-02
1.28592250E+00 1.09913850E+00 6.22352185E-02
1.28942160E+00 1.11529780E+00 6.32623709E-02
1.29292070E+00 1.16142730E+00 6.54362791E-02
1.29641990E+00 1.18620720E+00 6.70722132E-02
1.29991890E+00 1.07705070E+00 6.44224906E-02
1.30341800E+00 1.15076380E+00 6.75630949E-02
1.30691720E+00 1.18557060E+00 6.95402672E-02
1.31041620E+00 1.11768170E+00 6.80879569E-02
1.31391540E+00 1.13796960E+00 6.97406801E-02
1.31741450E+00 1.16286850E+00 7.15055114E-02
1.32091360E+00 1.09949390E+00 7.01827113E-02
1.32441270E+00 1.16838130E+00 7.34321651E-02
1.32791190E+00 1.09151380E+00 7.20621199E-02
1.33141090E+00 1.18677220E+00 7.58533195E-02
1.33491000E+00 1.17572830E+00 7.67033644E-02
1.33840920E+00 1.12314840E+00 7.61091603E-02
1.34190820E+00 1.13002250E+00 7.72356162E-02
1.34540740E+00 1.13662020E+00 7.86596115E-02
1.34890640E+00 1.13531050E+00 7.98789619E-02
1.35240550E+00 1.09552780E+00 7.95154530E-02
1.35590470E+00 1.19887020E+00 8.44858858E-02
1.35940370E+00 1.15030290E+00 8.41768829E-02
1.36290290E+00 1.10340360E+00 8.37237195E-02
1.36640200E+00 1.02840810E+00 8.20090654E-02
1.36990110E+00 1.05131830E+00 8.45270844E-02
1.37340020E+00 1.11695460E+00 8.87710172E-02
1.37689940E+00 1.03520620E+00 8.66455069E-02
1.38039840E+00 9.81393400E-01 8.60436727E-02
1.38389750E+00 9.44528100E-01 8.61813720E-02
1.38739670E+00 1.04089160E+00 9.21220604E-02
1.39089570E+00 9.63065680E-01 9.02773422E-02
1.39439490E+00 1.01781390E+00 9.49261439E-02
1.39789400E+00 1.06366280E+00 9.93637768E-02
1.40139310E+00 1.13309870E+00 1.04446005E-01
1.40489220E+00 9.86441610E-01 9.98673020E-02
1.40839140E+00 1.00348470E+00 1.03389394E-01
1.41189040E+00 9.55937330E-01 1.03575488E-01
1.41538950E+00 1.05719450E+00 1.11475243E-01
1.41888870E+00 9.73915400E-01 1.10231558E-01
1.42238770E+00 1.06315850E+00 1.18824309E-01
1.42588690E+00 1.12412000E+00 1.25870964E-01
1.42938590E+00 1.19935660E+00 1.34106431E-01
1.43288510E+00 1.15732360E+00 1.36701356E-01
1.43638420E+00 1.10175430E+00 1.38759788E-01
1.43988320E+00 9.00349080E-01 1.30152438E-01
1.44338240E+00 8.44519620E-01 1.31854173E-01
1.44688150E+00 1.07846820E+00 1.56747782E-01
1.45038060E+00 1.03980910E+00 1.62639529E-01
1.45387970E+00 7.97666550E-01 1.50045936E-01
1.45737890E+00 9.51326190E-01 1.74770148E-01
1.46087790E+00 8.14189140E-01 1.75357122E-01
